0.000100135803223	0
0.000201225280762	1620
0.000302076339722	1619
0.000402212142944	1620
0.000503063201904	1621
0.000603199005127	1621
0.000704050064087	1623
0.00080418586731	1625
0.00090503692627	1630
0.00100517272949	1632
0.00110602378845	1634
0.00120615959167	1637
0.00130701065063	1638
0.00140714645386	1641
0.00150799751282	1643
0.00160813331604	1646
0.00170922279358	1650
0.00181007385254	1652
0.00191020965576	1653
0.00201106071472	1655
0.00211119651794	1655
0.0022120475769	1656
0.00231218338013	1654
0.00241303443909	1654
0.00251317024231	1653
0.00261402130127	1653
0.00271415710449	1651
0.00281500816345	1651
0.00291514396667	1650
0.00301623344421	1650
0.00311708450317	1648
0.0032172203064	1647
0.00331807136536	1645
0.00341820716858	1644
0.00351905822754	1641
0.00361919403076	1638
0.00372004508972	1635
0.00382018089294	1634
0.0039210319519	1631
0.00402116775513	1628
0.00412201881409	1626
0.00422215461731	1625
0.00432300567627	1624
0.00442314147949	1623
0.00452423095703	1620
0.00462508201599	1619
0.00472521781921	1619
0.00482606887817	1619
0.0049262046814	1618
0.00502705574036	1618
0.00512719154358	1619
0.00522804260254	1620
0.00532817840576	1621
0.00542902946472	1623
0.00552916526794	1625
0.0056300163269	1626
0.00573015213013	1627
0.00583100318909	1628
0.00593113899231	1628
0.00603222846985	1629
0.00613307952881	1627
0.00623321533203	1627
0.00633406639099	1627
0.00643420219421	1626
0.00653505325317	1626
0.0066351890564	1623
0.00673604011536	1623
0.00683617591858	1622
0.00693702697754	1620
0.00703716278076	1618
0.00713801383972	1616
0.00724101066589	1616
0.00734114646912	1614
0.00744199752808	1614
0.0075421333313	1613
0.00764322280884	1612
0.0077440738678	1611
0.00784420967102	1611
0.00794506072998	1610
0.0080451965332	1609
0.00814604759216	1609
0.00824618339539	1608
0.00834703445435	1608
0.00844717025757	1608
0.00854802131653	1608
0.00864815711975	1609
0.00874900817871	1611
0.00884914398193	1611
0.00895023345947	1612
0.00905108451843	1613
0.00915122032166	1614
0.00925207138062	1615
0.00935220718384	1615
0.0094530582428	1614
0.00955319404602	1615
0.00965404510498	1615
0.0097541809082	1614
0.00985503196716	1614
0.00995516777039	1614
0.0100560188293	1613
0.0101561546326	1611
0.0102570056915	1610
0.0103571414948	1609
0.0104582309723	1607
0.0105590820312	1606
0.0106592178345	1604
0.0107600688934	1603
0.0108602046967	1603
0.0109610557556	1602
0.0110611915588	1599
0.0111620426178	1595
0.011262178421	1588
0.01136302948	1578
0.0114631652832	1564
0.0115640163422	1547
0.0116641521454	1524
0.0117650032043	1499
0.0118651390076	1472
0.0119662284851	1440
0.0120670795441	1410
0.0121672153473	1378
0.0122680664062	1344
0.0123682022095	1310
0.0124690532684	1275
0.0125691890717	1240
0.0126700401306	1204
0.0127701759338	1168
0.0128710269928	1129
0.012971162796	1090
0.013072013855	1054
0.0131721496582	1018
0.0132730007172	988
0.0133731365204	965
0.0134742259979	945
0.0135750770569	929
0.0136752128601	918
0.0137760639191	909
0.0138761997223	906
0.0139770507812	904
0.0140771865845	905
0.0141780376434	907
0.0142781734467	914
0.0143790245056	921
0.0144791603088	934
0.0145800113678	949
0.014680147171	965
0.01478099823	982
0.0148811340332	997
0.0149822235107	1010
0.0150830745697	1024
0.0151832103729	1033
0.0152840614319	1035
0.0153841972351	1032
0.0154850482941	1018
0.0155851840973	1000
0.0156860351562	980
0.0157861709595	957
0.0158870220184	936
0.0159871578217	915
0.0160880088806	893
0.0161881446838	872
0.0162892341614	857
0.0163900852203	845
0.0164902210236	837
0.0165910720825	834
0.0166912078857	839
0.0167920589447	852
0.0168921947479	872
0.0169930458069	901
0.0170931816101	936
0.0171940326691	979
0.0172941684723	1030
0.0173950195312	1091
0.0174951553345	1160
0.0175960063934	1235
0.0176961421967	1317
0.0177972316742	1401
0.0178980827332	1491
0.0179982185364	1589
0.0180990695953	1690
0.0181992053986	1797
0.0183000564575	1912
0.0184001922607	2032
0.0185010433197	2147
0.0186011791229	2253
0.018746137619	1644
0.0188472270966	1642
0.0189480781555	1640
0.0190482139587	1635
0.0191490650177	1630
0.0192492008209	1626
0.0193500518799	1622
0.0194501876831	1617
0.0195510387421	1615
0.0196511745453	1612
0.0197520256042	1611
0.0198521614075	1608
0.0199530124664	1608
0.0200531482697	1607
0.0201539993286	1605
0.0202541351318	1603
0.0203552246094	1601
0.0204560756683	1598
0.0205562114716	1596
0.0206570625305	1592
0.0207571983337	1590
0.0208580493927	1587
0.0209581851959	1583
0.0210590362549	1578
0.0211591720581	1575
0.0212600231171	1572
0.0213601589203	1568
0.0214610099792	1564
0.0215611457825	1561
0.02166223526	1558
0.021763086319	1556
0.0218632221222	1555
0.022646188736	1553
0.0228450298309	1552
0.0237011909485	1552
0.0248382091522	1551
0.0251071453094	1551
0.025936126709	1552
0.0264661312103	1551
0.0274341106415	1552
0.028037071228	1551
0.0287492275238	1550
0.0294840335846	1551
0.0304040908813	1551
0.030827999115	1550
0.0316321849823	1550
0.0326380729675	1550
0.0327761173248	1549
0.0338151454926	1549
0.034618139267	1546
0.0348761081696	1545
0.0358030796051	1541
0.0367460250854	1537
0.03697514534	1533
0.0378530025482	1528
0.0388541221619	1525
0.0391330718994	1521
0.040176153183	1517
0.0412080287933	1514
0.0413081645966	1510
0.0423991680145	1506
0.0426161289215	1505
0.0432751178741	1500
0.0444111824036	1497
0.0446979999542	1493
0.0458981990814	1490
0.0461030006409	1486
0.0469660758972	1483
0.0476830005646	1481
0.0483829975128	1479
0.0489571094513	1477
0.0497961044312	1476
0.0507230758667	1477
0.0511112213135	1476
0.051910161972	1474
0.0524702072144	1473
0.0536921024323	1473
0.0537931919098	1472
0.0549302101135	1470
0.0551691055298	1470
0.0560262203217	1468
0.0570201873779	1468
0.0573010444641	1467
0.0580530166626	1467
0.0587701797485	1468
0.0598661899567	1469
0.0602741241455	1468
0.0612580776215	1466
0.0616860389709	1466
0.0626361370087	1464
0.0630872249603	1462
0.0638530254364	1463
0.0644881725311	1463
0.0651972293854	1464
0.0658800601959	1464
0.0665650367737	1465
0.0672872066498	1467
0.0679800510406	1466
0.0686972141266	1467
0.0697751045227	1469
0.0699620246887	1469
0.0708210468292	1471
0.0717329978943	1472
0.072870016098	1473
0.0729701519012	1473
0.0735750198364	1476
0.0741801261902	1477
0.0748810768127	1476
0.0760190486908	1477
0.0764172077179	1476
0.0771150588989	1473
0.0780901908875	1472
0.0785109996796	1470
0.0794332027435	1467
0.0799112319946	1467
0.0806560516357	1465
0.0813381671906	1467
0.0822570323944	1467
0.0826380252838	1469
0.0834441184998	1472
0.084370136261	1475
0.084792137146	1478
0.0855572223663	1480
0.0866470336914	1484
0.086902141571	1485
0.087856054306	1489
0.0882642269135	1491
0.0889921188354	1495
0.0898010730743	1499
0.0904340744019	1504
0.0911660194397	1508
0.0918672084808	1513
0.0925710201263	1517
0.0935220718384	1519
0.0939350128174	1523
0.0949170589447	1526
0.0953600406647	1529
0.0963270664215	1532
0.0968091487885	1537
0.0974931716919	1542
0.0982050895691	1545
0.0989050865173	1548
0.0995872020721	1554
0.100301027298	1559
0.101249217987	1562
0.101657152176	1567
0.102385044098	1570
0.103494167328	1573
0.103812217712	1578
0.104753017426	1584
0.105146169662	1588
0.105911016464	1594
0.106874227524	1597
0.107300043106	1603
0.108292102814	1609
0.108680009842	1614
0.109421014786	1619
0.110134124756	1626
0.111080169678	1631
0.11145401001	1636
0.112215042114	1643
0.112911224365	1648
0.113867044449	1656
0.114983081818	1662
0.115085124969	1668
0.115694046021	1672
0.116469144821	1678
0.117106199265	1684
0.117741107941	1688
0.118744134903	1692
0.119139194489	1694
0.119931221008	1697
0.120620012283	1700
0.121313095093	1704
0.122062206268	1708
0.12277507782	1712
0.123746156693	1714
0.124130010605	1719
0.125190019608	1722
0.125588178635	1726
0.126323223114	1732
0.126929998398	1735
0.127988100052	1739
0.128377199173	1744
0.129319190979	1749
0.130462169647	1754
0.130606174469	1759
0.131468057632	1763
0.131899118423	1768
0.132704019547	1771
0.133589029312	1775
0.134014129639	1777
0.13473200798	1781
0.135713100433	1783
0.136115074158	1785
0.136901140213	1788
0.1375041008	1791
0.138263225555	1794
0.139222145081	1797
0.139626026154	1800
0.140357017517	1803
0.141053199768	1805
0.142017126083	1807
0.142354011536	1806
0.143449068069	1805
0.143866062164	1805
0.144836187363	1803
0.145259141922	1802
0.145969152451	1801
0.146930217743	1801
0.14729809761	1799
0.148320198059	1799
0.148685216904	1798
0.149477005005	1798
0.150419235229	1799
0.150805234909	1798
0.151619195938	1796
0.152266025543	1798
0.153253078461	1799
0.153659105301	1799
0.154635190964	1800
0.154971122742	1800
0.155776023865	1802
0.15648317337	1803
0.157389163971	1803
0.15777015686	1804
0.158574104309	1804
0.159405231476	1807
0.159999132156	1806
0.160671234131	1807
0.161380052567	1806
0.16215801239	1806
0.162830114365	1807
0.163800001144	1807
0.16411113739	1807
0.165112018585	1808
0.165508031845	1809
0.166196107864	1812
0.167147159576	1814
0.167584180832	1815
0.168449163437	1816
0.169111013412	1819
0.170114040375	1819
0.170331001282	1820
0.171151161194	1821
0.172137022018	1823
0.172539234161	1823
0.173279047012	1823
0.173918008804	1824
0.174863100052	1823
0.176047086716	1825
0.176155090332	1826
0.176828145981	1824
0.177471160889	1823
0.17816400528	1821
0.178966999054	1819
0.17965722084	1817
0.180624008179	1816
0.181003093719	1815
0.181776046753	1814
0.18274307251	1812
0.183166027069	1812
0.18386721611	1809
0.184592008591	1810
0.185549020767	1809
0.185816049576	1811
0.186693191528	1811
0.187372207642	1812
0.18807220459	1814
0.189025163651	1816
0.189454078674	1817
0.190128087997	1818
0.190855026245	1819
0.191929101944	1821
0.192201137543	1819
0.193249225616	1818
0.193672180176	1816
0.194427013397	1814
0.195359230042	1813
0.195731163025	1810
0.196476221085	1808
0.197454214096	1806
0.198552131653	1804
0.19865322113	1801
0.199303150177	1799
0.199961185455	1799
0.200693130493	1797
0.201653003693	1797
0.202841997147	1795
0.202943086624	1795
0.203457117081	1794
0.204479217529	1794
0.205651044846	1796
0.205760002136	1796
0.206292152405	1799
0.206992149353	1800
0.207703113556	1802
0.208389043808	1803
0.209115028381	1803
0.209805011749	1805
0.210740089417	1805
0.211160182953	1805
0.211918115616	1805
0.212865114212	1805
0.213235139847	1804
0.214026212692	1802
0.214981079102	1800
0.21534204483	1799
0.216069221497	1795
0.216862201691	1794
0.217483043671	1792
0.218138217926	1790
0.21906208992	1786
0.219540119171	1787
0.22033405304	1785
0.221064090729	1785
0.221753120422	1785
0.222699165344	1786
0.223115205765	1785
0.223878145218	1786
0.224849224091	1786
0.225292205811	1789
0.226254224777	1789
0.226681232452	1791
0.227415084839	1790
0.228133201599	1790
0.228818178177	1791
0.229470014572	1790
0.230224132538	1789
0.231176137924	1787
0.231518030167	1787
0.232306003571	1787
0.233017206192	1788
0.233980178833	1787
0.235074043274	1787
0.235228061676	1787
0.23584318161	1786
0.236548185349	1786
0.237454175949	1786
0.237915039062	1787
0.238652229309	1786
0.239328145981	1786
0.240304231644	1785
0.240649223328	1784
0.24168920517	1783
0.242102146149	1781
0.243026018143	1781
0.243468999863	1779
0.24422121048	1779
0.244958162308	1779
0.245667219162	1778
0.246307134628	1779
0.247033119202	1779
0.247773170471	1780
0.248486042023	1778
0.249429225922	1778
0.250545024872	1779
0.250685214996	1778
0.251288175583	1778
0.252231121063	1776
0.2533390522	1775
0.253475189209	1775
0.254072189331	1775
0.25502204895	1775
0.255320072174	1774
0.256421089172	1773
0.256870031357	1772
0.25754404068	1773
0.258473157883	1771
0.258832216263	1770
0.259663105011	1770
0.260321140289	1770
0.261100053787	1770
0.262031078339	1768
0.263261079788	1768
0.263408184052	1768
0.26388001442	1768
0.264895200729	1767
0.26523900032	1766
0.265987157822	1764
0.266947031021	1761
0.267336130142	1762
0.26829123497	1760
0.268736124039	1758
0.269520998001	1755
0.270261049271	1754
0.270908117294	1752
0.271870136261	1751
0.272218227386	1750
0.27321600914	1750
0.273670196533	1747
0.274379014969	1748
0.275385141373	1748
0.275843143463	1747
0.276745080948	1749
0.277171134949	1748
0.277839183807	1747
0.278601169586	1749
0.279326200485	1750
0.280006170273	1752
0.280970096588	1753
0.282074213028	1756
0.282214164734	1756
0.282876014709	1760
0.283772230148	1763
0.284184217453	1763
0.285180091858	1765
0.285583019257	1768
0.286331176758	1769
0.287313222885	1773
0.287686109543	1772
0.288435220718	1774
0.289115190506	1773
0.290083169937	1775
0.290454149246	1775
0.291409015656	1774
0.291869163513	1774
0.292616128922	1772
0.29336309433	1772
0.294326066971	1768
0.294730186462	1764
0.295433998108	1763
0.296174049377	1760
0.296903133392	1758
0.297571182251	1756
0.298283100128	1754
0.299193143845	1753
0.299622058868	1753
0.300339221954	1753
0.301003217697	1753
0.302017211914	1754
0.302341222763	1754
0.303385019302	1756
0.304550170898	1758
0.304651021957	1759
0.305552005768	1759
0.305906057358	1764
0.306907176971	1765
0.307327032089	1766
0.308036088943	1767
0.308761119843	1769
0.309476137161	1769
0.310456037521	1770
0.310861110687	1770
0.311880111694	1771
0.312268018723	1772
0.312984228134	1771
0.31396317482	1771
0.314363002777	1769
0.315075159073	1768
0.316060066223	1765
0.316460132599	1762
0.317213058472	1760
0.317915201187	1757
0.318620204926	1753
0.319511175156	1750
0.319977045059	1748
0.320694208145	1745
0.321425199509	1743
0.322368144989	1740
0.322825193405	1738
0.323453187943	1737
0.324223041534	1738
0.325168132782	1738
0.325594186783	1738
0.326323032379	1740
0.327292203903	1740
0.327702999115	1741
0.328674077988	1741
0.329075098038	1743
0.329860210419	1744
0.330769062042	1746
0.331211090088	1746
0.331960201263	1747
0.332641124725	1745
0.33355307579	1744
0.333969116211	1743
0.334716081619	1740
0.335707187653	1735
0.33683514595	1731
0.336938142776	1729
0.337845087051	1726
0.338181018829	1724
0.339254140854	1723
0.339655160904	1722
0.340373039246	1722
0.341066122055	1723
0.342047214508	1723
0.34242606163	1726
0.343187093735	1728
0.344163179398	1729
0.344587087631	1730
0.345536231995	1732
0.345946073532	1735
0.346708059311	1737
0.347673177719	1737
0.348064184189	1739
0.348802089691	1740
0.349501132965	1741
0.350218057632	1742
0.351174116135	1744
0.351587057114	1743
0.352566003799	1744
0.35297703743	1745
0.353718042374	1745
0.354363203049	1748
0.355379104614	1749
0.355854034424	1750
0.356523036957	1753
0.35720205307	1756
0.357916116714	1757
0.358640193939	1760
0.359360218048	1762
0.36003112793	1763
0.360740184784	1767
0.361436128616	1767
0.362141132355	1769
0.363102197647	1770
0.363436222076	1771
0.364458084106	1772
0.364886045456	1772
0.365904092789	1772
0.366306066513	1771
0.367069005966	1773
0.367987155914	1773
0.368396043777	1775
0.369385004044	1777
0.36982011795	1778
0.37052822113	1780
0.371261119843	1780
0.37219119072	1780
0.37259221077	1780
0.3735871315	1779
0.373980045319	1780
0.374746084213	1778
0.375774145126	1777
0.376073122025	1776
0.376895189285	1775
0.377554178238	1773
0.378514051437	1773
0.378931999207	1771
0.379674196243	1768
0.38037109375	1767
0.381033182144	1766
0.382021188736	1764
0.382429122925	1763
0.383415222168	1761
0.383830070496	1758
0.384877204895	1756
0.386040210724	1755
0.386197090149	1753
0.386731147766	1753
0.387459039688	1750
0.388355016708	1748
0.388831138611	1748
0.389511108398	1745
0.390256166458	1743
0.391204118729	1740
0.391582012177	1738
0.392357110977	1734
0.393283128738	1732
0.393701076508	1727
0.394400119781	1722
0.395411014557	1719
0.395896196365	1715
0.396812200546	1710
0.397222042084	1707
0.397931098938	1705
0.398676156998	1703
0.399561166763	1703
0.400032043457	1702
0.400771141052	1701
0.401728153229	1700
0.402143001556	1701
0.403136014938	1697
0.403532028198	1696
0.404301166534	1694
0.405258178711	1695
0.406306028366	1693
0.406464099884	1692
0.407392024994	1690
0.407752037048	1691
0.40845823288	1691
0.409179210663	1690
0.409907102585	1687
0.410597085953	1686
0.411519050598	1686
0.411940097809	1685
0.412700176239	1685
0.413405179977	1685
0.414344072342	1686
0.415447235107	1688
0.415569067001	1690
0.416209220886	1691
0.416844129562	1694
0.417909145355	1697
0.418260097504	1698
0.419005155563	1701
0.419730186462	1703
0.420634031296	1704
0.421094179153	1706
0.422112226486	1707
0.422516107559	1708
0.423449039459	1710
0.42391204834	1711
0.424627065659	1712
0.425292015076	1712
0.425981998444	1711
0.426658153534	1710
0.427363157272	1710
0.42804312706	1708
0.428779125214	1705
0.429425001144	1705
0.430368185043	1703
0.430855035782	1701
0.431700229645	1699
0.432660102844	1696
0.432995080948	1694
0.433747053146	1693
0.43444108963	1691
0.435127019882	1689
0.435892105103	1688
0.436782121658	1685
0.437203168869	1682
0.438013076782	1679
0.438888072968	1677
0.439208030701	1674
0.439999103546	1671
0.440712213516	1670
0.441418170929	1668
0.442422151566	1667
0.443530082703	1663
0.443647146225	1665
0.444295167923	1664
0.445271015167	1660
0.44565820694	1665
0.446417093277	1664
0.447392225266	1663
0.447695016861	1660
0.448772192001	1663
0.449183225632	1660
0.449945211411	1659
0.450672149658	1657
0.451388120651	1655
0.452309131622	1652
0.453409194946	1651
0.453533172607	1648
0.454396009445	1647
0.454767227173	1646
0.455817222595	1645
0.456161022186	1643
0.45715713501	1643
0.457583189011	1642
0.458522081375	1642
0.458955049515	1642
0.459703207016	1642
0.460424184799	1643
0.461163043976	1643
0.462102174759	1644
0.462421178818	1644
0.463221073151	1644
0.464172124863	1646
0.464536190033	1647
0.465581178665	1648
0.465990066528	1650
0.466768026352	1651
0.467678070068	1652
0.468085050583	1652
0.468918085098	1651
0.469549179077	1649
0.470155000687	1648
0.470879077911	1645
0.471931219101	1642
0.473021030426	1638
0.473155021667	1633
0.473647117615	1629
0.474691152573	1626
0.475028038025	1622
0.475930213928	1618
0.476597070694	1614
0.477572202682	1610
0.477916002274	1605
0.478674173355	1597
0.479616165161	1589
0.480048179626	1576
0.480791091919	1561
0.481498003006	1540
0.482174158096	1515
0.482876062393	1491
0.483505010605	1461
0.484288215637	1429
0.484983205795	1394
0.485933065414	1357
0.486317157745	1318
0.487417221069	1278
0.487790107727	1237
0.488799095154	1195
0.489186048508	1154
0.490163087845	1113
0.491369009018	1070
0.491495132446	1029
0.492387056351	988
0.492496013641	955
0.493594169617	926
0.493698120117	900
0.494872093201	877
0.494973182678	859
0.496031045914	846
0.496133089066	839
0.497251033783	834
0.497354030609	833
0.498463153839	835
0.498564004898	839
0.499707221985	849
0.499810218811	858
0.500936031342	871
0.501038074493	888
0.502140045166	905
0.502243041992	926
0.50337100029	948
0.503513097763	969
0.504587173462	988
0.504688024521	1007
0.505822181702	1025
0.506161212921	1036
0.507191181183	1037
0.507564067841	1033
0.508373022079	1020
0.509006023407	1002
0.509882211685	980
0.51078915596	958
0.510890007019	936
0.511853218079	913
0.511957168579	890
0.513001203537	870
0.513102054596	851
0.514226198196	838
0.51432800293	830
0.515446186066	828
0.515547037125	837
0.516634225845	854
0.516735076904	878
0.517821073532	911
0.517921209335	951
0.519048213959	996
0.519149065018	1049
0.520212173462	1116
0.520925045013	1189
0.521627187729	1269
0.522606134415	1353
0.522852182388	1443
0.523767232895	1539
0.524321079254	1644
0.525109052658	1760
0.526190042496	1884
0.526431083679	2017
0.527468204498	2149
0.527937173843	2271
0.528674125671	2379
0.529312133789	2471
0.530078172684	2537
0.530744075775	2588
0.531468153	2609
0.532427072525	2605
0.532919168472	2582
0.533588171005	2538
0.534538030624	2477
0.534925222397	2398
0.535935163498	2310
0.536316156387	2215
0.537093162537	2115
0.53772521019	2012
0.538481235504	1914
0.53918504715	1821
0.54013299942	1738
0.540506124496	1662
0.541276216507	1598
0.541979074478	1546
0.54295706749	1503
0.543201208115	1473
0.544364213943	1452
0.54475402832	1443
0.545491218567	1439
0.546473026276	1443
0.546905040741	1451
0.54750919342	1464
0.548255205154	1479
0.549245119095	1497
0.549606084824	1512
0.55060505867	1528
0.550979137421	1546
0.551762104034	1559
0.552764177322	1569
0.553176164627	1580
0.553940057755	1586
0.554620027542	1590
0.555584192276	1592
0.555991172791	1592
0.556664228439	1591
0.557432174683	1587
0.558108091354	1583
0.559043169022	1578
0.55943608284	1574
0.560253143311	1567
0.56095123291	1562
0.561669111252	1558
0.562626123428	1553
0.563748121262	1548
0.563905000687	1543
0.564483165741	1540
0.56543302536	1537
0.565914154053	1537
0.566555023193	1534
0.567271232605	1533
0.568217039108	1531
0.568635225296	1531
0.569377183914	1531
0.570340156555	1528
0.570697069168	1529
0.571442127228	1528
0.572452068329	1526
0.572929143906	1526
0.573838233948	1526
0.574267148972	1526
0.574961185455	1526
0.575934171677	1526
0.576345205307	1528
0.577328205109	1529
0.577740192413	1529
0.578486204147	1529
0.579189062119	1531
0.579906225204	1531
0.580581188202	1532
0.58126115799	1531
0.582243204117	1530
0.58259510994	1527
0.583418130875	1526
0.584094047546	1524
0.584800004959	1520
0.585766077042	1516
0.58616399765	1513
0.587108135223	1508
0.587513208389	1504
0.588554143906	1499
0.588934183121	1497
0.589720010757	1494
0.590356111526	1490
0.591358184814	1489
0.592482089996	1488
0.592665195465	1487
0.593394041061	1486
0.593848228455	1487
0.59489607811	1487
0.595257997513	1487
0.595980167389	1489
0.596963167191	1491
0.598057031631	1493
0.598196029663	1493
0.599070072174	1494
0.599332094193	1494
0.600468158722	1493
0.600876092911	1493
0.60157418251	1492
0.602563142776	1490
0.602980136871	1487
0.603765010834	1483
0.604663133621	1479
0.605020046234	1476
0.605785131454	1471
0.606488227844	1468
0.607461214066	1465
0.607877016068	1462
0.608588218689	1460
0.609589099884	1457
0.609902143478	1454
0.61097407341	1451
0.611290216446	1450
0.61236000061	1446
0.612838029861	1443
0.613473176956	1442
0.614238023758	1442
0.614920139313	1441
0.615917205811	1443
0.616245031357	1445
0.617347002029	1448
0.617690086365	1449
0.618420124054	1452
0.619491100311	1452
0.620656013489	1453
0.620758056641	1455
0.621240139008	1455
0.622273206711	1457
0.622605085373	1456
0.623410224915	1454
0.62434220314	1454
0.624714136124	1453
0.625761032104	1453
0.626091003418	1451
0.626914024353	1450
0.627590179443	1447
0.6285572052	1445
0.628910064697	1443
0.629657030106	1440
0.630407094955	1439
0.631343126297	1437
0.631785154343	1437
0.632776021957	1437
0.633180141449	1435
0.634182214737	1433
0.634571075439	1432
0.635225057602	1430
0.636019229889	1426
0.636745214462	1425
0.637368202209	1420
0.638101100922	1418
0.639040231705	1415
0.639440059662	1413
0.640189170837	1409
0.641203165054	1405
0.641525030136	1401
0.642572164536	1397
0.642973184586	1390
0.643720149994	1384
0.644755125046	1380
0.645061016083	1374
0.64593911171	1368
0.646581172943	1361
0.647281169891	1354
0.647965192795	1349
0.64891910553	1345
0.650036096573	1341
0.65013718605	1338
0.650689125061	1336
0.651719093323	1334
0.652127027512	1331
0.652912139893	1330
0.6535820961	1330
0.654511213303	1331
0.654936075211	1332
0.655697107315	1335
0.65661406517	1336
0.657060146332	1338
0.657768011093	1341
0.658719062805	1342
0.659177064896	1344
0.660144090652	1342
0.661227226257	1343
0.661339044571	1342
0.662004232407	1340
0.662682056427	1338
0.663426160812	1336
0.664351224899	1333
0.664767026901	1330
0.665489196777	1327
0.666212081909	1325
0.667171001434	1322
0.668268203735	1320
0.668370008469	1315
0.669266223907	1311
0.670370101929	1308
0.670522212982	1306
0.671074151993	1301
0.671798229218	1298
0.672460079193	1294
0.673401117325	1291
0.673785209656	1287
0.674876213074	1286
0.675293207169	1282
0.676070213318	1282
0.676994085312	1279
0.677435159683	1277
0.678136110306	1274
0.6789021492	1272
0.679816007614	1270
0.680250167847	1268
0.680918216705	1267
0.681635141373	1267
0.682303190231	1266
0.68301820755	1266
0.683726072311	1266
0.684684038162	1268
0.685082197189	1270
0.686076164246	1271
0.686479091644	1272
0.687456130981	1275
0.687902212143	1278
0.688611030579	1280
0.689346075058	1283
0.690016031265	1285
0.690964221954	1288
0.691314220428	1292
0.692138195038	1293
0.692882061005	1295
0.693798065186	1296
0.694192171097	1297
0.695203065872	1297
0.695609092712	1298
0.696356058121	1298
0.697058200836	1297
0.697745084763	1296
0.698399066925	1295
0.699151039124	1291
0.699871063232	1291
0.700875997543	1289
0.701197147369	1286
0.701826095581	1283
0.702928066254	1279
0.703349113464	1277
0.704039096832	1274
0.704737186432	1272
0.705768108368	1270
0.706141233444	1267
0.706880092621	1268
0.707564115524	1267
0.708325147629	1267
0.709014177322	1269
0.709957122803	1270
0.710334062576	1272
0.711124181747	1274
0.71183514595	1276
0.712802171707	1279
0.713223218918	1282
0.713935136795	1284
0.714635133743	1286
0.715483188629	1288
0.716017007828	1289
0.716982126236	1292
0.717413187027	1295
0.718136072159	1298
0.718919038773	1299
0.71954202652	1301
0.720425128937	1305
0.720860004425	1309
0.721616029739	1311
0.722308158875	1316
0.723301172256	1319
0.723679065704	1323
0.724429130554	1327
0.725134134293	1330
0.725881099701	1335
0.726804018021	1338
0.727191209793	1340
0.727937221527	1345
0.728631019592	1347
0.729584217072	1351
0.729989051819	1355
0.731008052826	1359
0.731296062469	1362
0.732130050659	1368
0.73310303688	1372
0.733503103256	1377
0.734216213226	1380
0.734966039658	1384
0.735912084579	1388
0.736324071884	1390
0.737039089203	1394
0.737770080566	1396
0.738359212875	1400
0.739451169968	1403
0.739843130112	1407
0.740563154221	1412
0.741320133209	1417
0.741984128952	1421
0.742816209793	1428
0.743200063705	1431
0.744087219238	1437
0.745039224625	1441
0.745430231094	1445
0.746179103851	1451
0.746901035309	1455
0.74760723114	1460
0.748605012894	1465
0.748901128769	1471
0.749692201614	1477
0.750649213791	1484
0.75105714798	1489
0.751801013947	1495
0.752759218216	1502
0.753158092499	1508
0.754122018814	1514
0.755296230316	1520
0.755416154861	1526
0.756003141403	1534
0.756722211838	1540
0.757400035858	1546
0.758112192154	1550
0.75888299942	1555
0.7594871521	1559
0.760221004486	1561
0.760932207108	1562
0.761908054352	1564
0.762966156006	1564
0.763074159622	1567
0.763710021973	1565
0.764664173126	1567
0.76505112648	1568
0.766081094742	1570
0.766492128372	1573
0.76748919487	1576
0.767862081528	1578
0.768908023834	1582
0.769306182861	1586
0.770051002502	1589
0.770750999451	1593
0.771712064743	1597
0.772123098373	1601
0.772888183594	1603
0.773874998093	1606
0.774211168289	1610
0.775225162506	1614
0.775530099869	1616
0.776245117188	1620
0.776934146881	1622
0.778036117554	1624
0.778390169144	1627
0.779447078705	1629
0.779797077179	1631
0.780557155609	1633
0.78153014183	1634
0.781894207001	1637
0.78266119957	1639
0.783390045166	1640
0.784077167511	1642
0.784808158875	1646
0.785497188568	1648
0.786184072495	1648
0.786899089813	1652
0.78789806366	1653
0.788285017014	1653
0.78902721405	1653
0.789979219437	1654
0.790360212326	1656
0.791128158569	1657
0.791817188263	1657
0.792528152466	1657
0.793164014816	1656
0.793879032135	1655
0.794619083405	1654
0.79535317421	1652
0.796284198761	1651
0.796704053879	1649
0.797743082047	1646
0.798122167587	1642
0.798877000809	1640
0.799506187439	1638
0.80050110817	1635
0.801620006561	1634
0.801730155945	1630
0.802606105804	1630
0.803013086319	1629
0.803688049316	1631
0.804727077484	1633
0.80504822731	1632
0.80611205101	1638
0.806433200836	1641
0.807278156281	1645
0.807927131653	1650
0.808626174927	1654
0.8093791008	1659
0.810356140137	1662
0.810653209686	1663
0.811484098434	1665
0.812160015106	1666
0.81310915947	1667
0.813516139984	1668
0.81452703476	1668
0.8149330616	1667
0.815690040588	1665
0.816341161728	1662
0.817246198654	1661
0.817665100098	1658
0.818546056747	1654
0.819450139999	1651
0.820491075516	1648
0.820627212524	1646
0.821250200272	1645
0.821949005127	1641
0.822917222977	1639
0.823271036148	1639
0.82402920723	1640
0.825017213821	1638
0.825403213501	1639
0.826102018356	1638
0.826845169067	1636
0.827572107315	1638
0.828310012817	1636
0.829137086868	1634
0.830384016037	1636
0.830510139465	1635
0.831086158752	1635
0.832032203674	1637
0.832452058792	1636
0.833432197571	1638
0.833852052689	1640
0.834830999374	1643
0.835203170776	1644
0.835979223251	1645
0.836912155151	1648
0.83806014061	1649
0.838161230087	1650
0.838833093643	1651
0.839401006699	1652
0.840408086777	1651
0.840826034546	1650
0.841855049133	1650
0.842249155045	1647
0.843000173569	1645
0.843699216843	1642
0.84441113472	1637
0.845329999924	1634
0.845801115036	1631
0.846427202225	1626
0.847407102585	1623
0.848580121994	1620
0.848681211472	1618
0.849511146545	1616
0.850680112839	1613
0.850781202316	1612
0.851410150528	1609
0.852132081985	1609
0.852859020233	1609
0.853861093521	1610
0.85418510437	1612
0.855214118958	1614
0.855658054352	1616
0.856391191483	1619
0.857358217239	1621
0.857758045197	1624
0.858500003815	1628
0.859452009201	1630
0.859872102737	1629
0.860660076141	1630
0.861622095108	1629
0.861996173859	1630
0.862769126892	1629
0.863468170166	1626
0.864154100418	1625
0.865092039108	1622
0.865512132645	1620
0.866463184357	1618
0.867579221725	1616
0.867691040039	1614
0.868281126022	1613
0.86901807785	1612
0.869738101959	1610
0.870395183563	1610
0.871416091919	1611
0.871846199036	1612
0.872535228729	1613
0.873231172562	1613
0.873930215836	1615
0.874650001526	1616
0.875565052032	1617
0.876029014587	1618
0.876774072647	1617
0.877454042435	1618
0.878129005432	1615
0.878844022751	1614
0.879554033279	1611
0.880355119705	1610
0.881040096283	1605
0.88161110878	1602
0.882302999496	1599
0.883391141891	1598
0.883795022964	1596
0.884527206421	1594
0.885203123093	1592
0.88593506813	1591
0.886588096619	1590
0.887292146683	1590
0.88794708252	1588
0.888937234879	1589
0.889358997345	1587
0.890124082565	1585
0.891037225723	1583
0.891491174698	1580
0.892102003098	1577
0.893074035645	1574
0.893550157547	1571
0.894300222397	1567
0.895001173019	1564
0.895950078964	1560
0.896391153336	1558
0.89710521698	1556
0.897819042206	1554
0.898764133453	1552
0.899166107178	1549
0.899931192398	1546
0.90090918541	1542
0.901285171509	1539
0.902030229568	1537
0.902721166611	1533
0.903683185577	1529
0.904078006744	1527
0.904934167862	1527
0.905861139297	1526
0.906239032745	1526
0.907263040543	1528
0.907675027847	1530
0.908662080765	1530
0.909069061279	1531
0.910070180893	1530
0.910452127457	1527
0.911471128464	1521
0.912577152252	1520
0.912688016891	1516
0.913576126099	1512
0.913953065872	1509
0.914721012115	1508
0.91540312767	1505
0.916334152222	1504
0.917437076569	1503
0.917549133301	1505
0.918183088303	1505
0.918873071671	1508
0.919888019562	1510
0.920212030411	1514
0.920982122421	1518
0.921694040298	1521
0.922422170639	1525
0.923374176025	1530
0.92441701889	1533
0.924542188644	1537
0.925206184387	1538
0.926079034805	1539
0.926446199417	1539
0.927173137665	1543
0.927997112274	1546
0.928941011429	1553
0.92929816246	1560
0.93008518219	1570
0.930997133255	1581
0.931339025497	1595
0.932552099228	1609
0.933638095856	1624
0.933748006821	1641
0.934633016586	1657
0.934952020645	1673
0.936041116714	1687
0.936443090439	1701
0.937099218369	1711
0.937819004059	1719
0.938588142395	1726
0.939313173294	1728
0.93991112709	1728
0.940627098083	1724
0.941330194473	1719
0.942043066025	1712
0.943016052246	1702
0.943288087845	1692
0.94408416748	1682
0.944901227951	1672
0.945503234863	1663
0.946548223495	1654
0.947646141052	1648
0.947808027267	1642
0.948393106461	1639
0.949351072311	1637
0.949783086777	1636
0.950513124466	1635
0.951193094254	1635
0.952164173126	1635
0.953307151794	1636
0.953462123871	1637
0.953960180283	1639
0.95470905304	1641
0.955655097961	1643
0.956809997559	1644
0.956972122192	1645
0.957453012466	1648
0.958354234695	1649
0.958829164505	1648
0.960022211075	1648
0.960175037384	1648
0.960970163345	1646
0.961722135544	1645
0.96241402626	1642
0.963165044785	1640
0.964123010635	1639
0.964515209198	1638
0.965215206146	1637
0.965910196304	1635
0.96657705307	1636
0.967350006104	1635
0.968253135681	1635
0.968654155731	1634
0.969413042068	1633
0.970383167267	1634
0.970756053925	1635
0.97149515152	1636
0.972233057022	1640
0.972995042801	1642
0.973676204681	1646
0.97438120842	1651
0.975081205368	1655
0.975775003433	1661
0.976714134216	1667
0.977069139481	1669
0.977911233902	1673
0.978584051132	1675
0.979341030121	1680
0.979917049408	1684
0.980965137482	1685
0.982072114944	1688
0.982237100601	1690
0.983059167862	1692
0.983313083649	1691
0.984153032303	1690
0.985160112381	1688
0.985564231873	1686
0.986569166183	1685
0.986981153488	1680
0.987731218338	1676
0.988406181335	1673
0.989118099213	1669
0.989817142487	1665
0.990467071533	1664
0.991394042969	1664
0.991860151291	1662
0.992570161819	1661
0.993573188782	1659
0.993932008743	1658
0.994994163513	1657
0.99530506134	1657
0.996132135391	1657
0.996849060059	1656
0.997551202774	1657
0.998243093491	1655
0.998952150345	1655
0.999960184097	1655
1.00102114677	1654
1.00117707253	1654
1.00201201439	1651
1.00239801407	1651
1.00341200829	1650
1.00373101234	1651
1.00449204445	1651
1.00549507141	1654
1.0066010952	1655
1.00676608086	1657
1.00734114647	1660
1.00803422928	1662
1.00875306129	1667
1.00971412659	1668
1.01090812683	1669
1.01107621193	1671
1.01154303551	1671
1.01252603531	1671
1.01293611526	1670
1.01366114616	1668
1.01437020302	1664
1.0153491497	1659
1.0157251358	1655
1.01647901535	1649
1.01741909981	1647
1.01789617538	1643
1.01859617233	1639
1.01932406425	1636
1.01997709274	1631
1.02094507217	1628
1.0213432312	1624
1.02234911919	1620
1.02274513245	1618
1.02347302437	1617
1.02414917946	1613
1.02491402626	1612
1.02588415146	1610
1.02620911598	1610
1.02700209618	1610
1.02765107155	1609
1.02867722511	1609
1.02908802032	1609
1.03009915352	1610
1.03118801117	1608
1.03136014938	1608
1.03196310997	1606
1.03263521194	1606
1.0333480835	1606
1.03429222107	1607
1.03469705582	1607
1.03570604324	1608
1.03610801697	1608
1.03681516647	1609
1.03780412674	1611
1.03814721107	1612
1.03895711899	1614
1.03959918022	1617
1.04056715965	1619
1.040995121	1622
1.04176616669	1626
1.04266309738	1628
1.04307103157	1630
1.04388999939	1633
1.04457306862	1633
1.04552602768	1633
1.04595208168	1634
1.04696512222	1634
1.04805922508	1631
1.04821109772	1632
1.04876804352	1630
1.04947018623	1629
1.0501871109	1626
1.0508890152	1624
1.05182814598	1621
1.05224704742	1617
1.05291509628	1615
1.05369520187	1614
1.05437922478	1611
1.05506515503	1609
1.05606007576	1609
1.05645012856	1608
1.0572040081	1608
1.05792021751	1608
1.058822155	1608
1.0592880249	1609
1.06000304222	1609
1.0606970787	1609
1.06134915352	1607
1.06209421158	1607
1.06277322769	1606
1.06375217438	1604
1.06415319443	1603
1.06495523453	1602
1.06561803818	1602
1.06657218933	1600
1.06698417664	1597
1.06766605377	1595
1.0684030056	1593
1.06912112236	1590
1.06980705261	1589
1.07040500641	1588
1.07118916512	1587
1.07195901871	1588
1.07262921333	1588
1.07357215881	1590
1.07395601273	1589
1.07502317429	1592
1.07614016533	1593
1.0763001442	1595
1.07687401772	1597
1.07757902145	1598
1.07827305794	1599
1.07897114754	1602
1.07998204231	1602
1.08032202721	1603
1.08132219315	1603
1.08165812492	1603
1.08242416382	1603
1.08312606812	1602
1.08410215378	1601
1.08451914787	1598
1.08525419235	1597
1.08595299721	1595
1.08661818504	1593
1.0876660347	1592
1.0880651474	1589
1.08879208565	1588
1.0894920826	1586
1.09018516541	1583
1.09098315239	1581
1.09184503555	1578
1.09226703644	1575
1.09301018715	1572
1.09396505356	1566
1.0943570137	1563
1.09508419037	1557
1.09581804276	1553
1.09675621986	1551
1.09716820717	1547
1.09798908234	1546
1.09856915474	1543
1.09927821159	1539
1.10027122498	1534
1.10067105293	1525
1.10157108307	1512
1.10198307037	1495
1.10275006294	1475
1.10374522209	1451
1.10414600372	1424
1.10493206978	1393
1.10565805435	1361
1.10631418228	1324
1.10698223114	1291
1.1076772213	1252
1.10845708847	1217
1.10939621925	1177
1.10977005959	1139
1.11049318314	1098
1.1114051342	1058
1.11186814308	1014
1.11290407181	973
1.11402511597	938
1.11416316032	904
1.11523222923	870
1.11539316177	841
1.11645102501	812
1.11659502983	788
1.11761713028	768
1.11776018143	752
1.11886715889	741
1.11900901794	731
1.12013101578	724
1.12027001381	722
1.12039422989	721
1.12148118019	725
1.12158203125	732
1.12266111374	743
1.12277817726	757
1.12393522263	774
1.12406611443	791
1.12512207031	807
1.12523508072	822
1.12634110451	837
1.12646508217	850
1.12764310837	857
1.1277692318	862
1.12875413895	861
1.12888908386	856
1.12997603416	848
1.13012003899	837
1.13119316101	823
1.13133120537	808
1.13205718994	795
1.13307714462	782
1.13318920135	773
1.13400101662	767
1.13495922089	767
1.13506007195	771
1.1358320713	785
1.13677000999	804
1.1368701458	834
1.13800311089	874
1.13810420036	921
1.13922715187	978
1.13934206963	1044
1.14019823074	1128
1.1411151886	1220
1.14151620865	1319
1.14226508141	1420
1.1429681778	1524
1.14368915558	1627
1.14462423325	1728
1.14503216743	1830
1.14577913284	1936
1.14671301842	2043
1.14714717865	2150
1.14791321754	2252
1.14858007431	2341
1.14953804016	2420
1.14995121956	2478
1.15071821213	2521
1.15137505531	2539
1.152105093	2538
1.1528031826	2516
1.15347123146	2475
1.1542160511	2420
1.1549270153	2348
1.15565419197	2271
1.15637516975	2187
1.15732502937	2098
1.15843915939	2006
1.15855121613	1920
1.15944218636	1836
1.15980505943	1761
1.16051411629	1693
1.16153812408	1636
1.16187119484	1587
1.16290616989	1550
1.16330504417	1520
1.1643280983	1501
1.16466712952	1489
1.16547417641	1482
1.16618108749	1481
1.16681909561	1487
1.1674849987	1493
1.16852116585	1500
1.16888308525	1509
1.16993308067	1517
1.1702671051	1528
1.17134618759	1537
1.1724190712	1545
1.17252016068	1552
1.17317914963	1559
1.1738910675	1565
1.17458820343	1569
1.17520904541	1573
1.17622303963	1575
1.17739510536	1575
1.17750620842	1575
1.17803215981	1571
1.17874908447	1574
1.17976212502	1572
1.18009209633	1570
1.18095517159	1568
1.18187904358	1566
1.18219804764	1564
1.18301510811	1562
1.18371915817	1559
1.18467211723	1557
1.185090065	1552
1.18607020378	1548
1.18713617325	1540
1.18730306625	1537
1.18795919418	1533
1.18894720078	1528
1.18927311897	1524
1.19001913071	1520
1.19062304497	1516
1.1916680336	1512
1.19208216667	1510
1.19278001785	1508
1.19370913506	1504
1.19498109818	1502
1.19508314133	1499
1.1956410408	1498
1.19628310204	1495
1.1972720623	1495
1.19755005836	1494
1.19871020317	1494
1.19895911217	1494
1.19982409477	1494
1.20050215721	1493
1.20125722885	1492
1.20222401619	1493
1.20263504982	1492
1.20335817337	1493
1.20401215553	1491
1.20488500595	1491
1.20534014702	1490
1.20631313324	1490
1.20744919777	1490
1.20760011673	1489
1.20822119713	1492
1.20920300484	1495
1.20959806442	1498
1.21065807343	1499
1.21098303795	1502
1.21205711365	1504
1.21242022514	1507
1.21319913864	1509
1.21416211128	1513
1.21452403069	1517
1.21527314186	1518
1.21599912643	1520
1.21670103073	1521
1.21739721298	1521
1.21808218956	1519
1.2187371254	1517
1.21949505806	1515
1.22020220757	1512
1.22086501122	1509
1.22177410126	1506
1.22216105461	1503
1.22325611115	1501
1.22363615036	1497
1.2243180275	1491
1.22512722015	1493
1.22580313683	1491
1.2267742157	1487
1.22719120979	1486
1.22818303108	1487
1.22858810425	1483
1.22959423065	1482
1.22996902466	1482
1.23074102402	1479
1.23144817352	1479
1.23241305351	1477
1.23281812668	1475
1.23356318474	1474
1.23426413536	1473
1.23496222496	1469
1.23555612564	1467
1.23634314537	1465
1.23702311516	1463
1.23775219917	1462
1.23871707916	1460
1.23909711838	1460
1.24011421204	1461
1.24048113823	1464
1.2412571907	1467
1.2419230938	1468
1.24257922173	1472
1.24328112602	1474
1.24408721924	1476
1.24477100372	1477
1.24547505379	1478
1.24617815018	1478
1.24695515633	1478
1.24785208702	1477
1.24823713303	1477
1.24900722504	1475
1.24995207787	1474
1.25036001205	1473
1.25109410286	1469
1.25175499916	1465
1.25272417068	1463
1.25311923027	1460
1.25392818451	1456
1.25461101532	1451
1.25534820557	1448
1.25600504875	1444
1.25672006607	1440
1.25762701035	1436
1.25800704956	1431
1.25875806808	1425
1.25947523117	1419
1.26049518585	1412
1.26091504097	1405
1.2616250515	1400
1.26256513596	1395
1.26300120354	1389
1.26398706436	1385
1.2643930912	1383
1.26512312889	1381
1.26585316658	1380
1.26677918434	1381
1.26719212532	1380
1.26820206642	1383
1.2686150074	1385
1.26934909821	1386
1.27006006241	1388
1.27069616318	1390
1.27145504951	1391
1.27213120461	1393
1.27308821678	1395
1.27347612381	1398
1.27423620224	1399
1.27491521835	1399
1.2756562233	1400
1.27661514282	1401
1.27701616287	1399
1.27774715424	1399
1.27843904495	1398
1.27941322327	1396
1.28064417839	1395
1.2807571888	1393
1.28129005432	1391
1.28198218346	1387
1.2826821804	1384
1.28337907791	1382
1.28409600258	1378
1.28475213051	1374
1.28571820259	1371
1.28617119789	1367
1.28692507744	1363
1.28788518906	1360
1.28829908371	1358
1.28902411461	1354
1.28993201256	1352
1.29103207588	1349
1.29115104675	1345
1.29182100296	1344
1.29253101349	1339
1.29345822334	1334
1.29387807846	1331
1.29463410378	1327
1.29538202286	1324
1.29603409767	1321
1.29672503471	1319
1.29737710953	1317
1.29813718796	1316
1.29910612106	1315
1.30020999908	1316
1.30032110214	1319
1.30096411705	1320
1.30196499825	1323
1.30231809616	1326
1.30334305763	1329
1.30367517471	1331
1.30468821526	1335
1.30510401726	1338
1.30608320236	1338
1.30717802048	1338
1.30732607841	1339
1.30793905258	1338
1.30895400047	1339
1.30923318863	1338
1.31032800674	1336
1.31073117256	1334
1.31146717072	1330
1.31241703033	1327
1.31351304054	1325
1.3136241436	1322
1.31429719925	1319
1.31526207924	1315
1.31560921669	1312
1.31665301323	1310
1.31707715988	1307
1.31769514084	1306
1.31842207909	1306
1.31918120384	1303
1.31998205185	1303
1.32088017464	1302
1.32126903534	1301
1.32201123238	1303
1.32271313667	1303
1.32340502739	1305
1.32411718369	1308
1.32501101494	1311
1.32548713684	1314
1.32621407509	1317
1.32719421387	1321
1.32829022408	1324
1.32840418816	1327
1.32899022102	1330
1.32966017723	1335
1.33042311668	1339
1.33110404015	1341
1.33184814453	1345
1.33254122734	1349
1.33350110054	1351
1.33394312859	1353
1.33465218544	1353
1.33538103104	1352
1.33631801605	1351
1.33674502373	1349
1.33765101433	1350
1.33805704117	1349
1.33882117271	1346
1.33978009224	1349
1.34017300606	1350
1.34093117714	1350
1.34193611145	1352
1.34224319458	1353
1.34332108498	1355
1.34369015694	1358
1.34442901611	1359
1.34512805939	1360
1.34580206871	1365
1.3467400074	1367
1.34717321396	1370
1.34794402122	1375
1.34898114204	1378
1.34931111336	1383
1.35033321381	1387
1.35076403618	1393
1.35174512863	1398
1.35211420059	1402
1.35287904739	1408
1.35384202003	1411
1.35423207283	1415
1.35500621796	1418
1.35572504997	1423
1.35665822029	1427
1.35701417923	1431
1.35776901245	1435
1.35844516754	1441
1.35921120644	1444
1.36018705368	1448
1.36053800583	1451
1.36133408546	1456
1.36227416992	1458
1.36261916161	1462
1.36344218254	1465
1.36413502693	1468
1.36508202553	1472
1.36542916298	1476
1.36648917198	1478
1.36688709259	1483
1.36759209633	1485
1.36831712723	1488
1.36930918694	1492
1.36965608597	1496
1.37042808533	1500
1.37139201164	1505
1.37171006203	1510
1.37251710892	1516
1.37322211266	1523
1.37415122986	1527
1.37521505356	1536
1.37535119057	1541
1.37598419189	1549
1.37665319443	1556
1.37762618065	1563
1.37812209129	1571
1.37881112099	1578
1.37939119339	1585
1.38018417358	1592
1.38087201118	1601
1.38185811043	1607
1.38225603104	1614
1.38301920891	1623
1.38372612	1630
1.38449001312	1634
1.3853700161	1639
1.38580012321	1643
1.3867650032	1645
1.38717222214	1647
1.38820004463	1648
1.38857603073	1648
1.38934516907	1649
1.39010310173	1648
1.3909471035	1646
1.39136099815	1644
1.39212203026	1642
1.3928861618	1637
1.3936560154	1634
1.39458203316	1630
1.39566302299	1627
1.39576506615	1624
1.39638900757	1621
1.3970990181	1619
1.39771699905	1618
1.39851403236	1618
1.39920306206	1618
1.40016317368	1619
1.40055203438	1621
1.40131402016	1624
1.40226316452	1627
1.40266513824	1628
1.40367221832	1631
1.40399813652	1634
1.40498018265	1637
1.40536522865	1639
1.40640306473	1641
1.40681314468	1644
1.4075551033	1647
1.40856313705	1650
1.40899014473	1654
1.40970802307	1655
1.4103500843	1658
1.41132712364	1661
1.41180515289	1662
1.41279006004	1662
1.41320204735	1661
1.41396403313	1662
1.41463422775	1661
1.41531920433	1660
1.41630005836	1659
1.41670012474	1658
1.41740512848	1655
1.41815114021	1653
1.41886901855	1651
1.41949415207	1651
1.42045807838	1649
1.42094516754	1647
1.42165708542	1646
1.42235517502	1647
1.42305517197	1645
1.42380309105	1646
1.42445111275	1646
1.42539906502	1649
1.42580223083	1648
1.42654800415	1649
1.42745614052	1649
1.42786407471	1649
1.42862606049	1651
1.4293692112	1649
1.43027901649	1651
1.43065023422	1649
1.43173122406	1648
1.43296313286	1648
1.43307805061	1646
1.43362021446	1643
1.43431019783	1642
1.4350399971	1639
1.43562412262	1638
1.43657422066	1636
1.43703317642	1634
1.43812203407	1633
1.43829607964	1632
1.43918204308	1635
1.43986201286	1635
1.44087910652	1636
1.44123411179	1640
1.44197320938	1641
1.44298815727	1643
1.4432220459	1645
1.44443511963	1647
1.44550323486	1649
1.4456140995	1652
1.44622921944	1656
1.44692707062	1658
1.44755601883	1661
1.44860911369	1666
1.44900417328	1669
1.44976902008	1673
1.45070719719	1676
1.45109200478	1678
1.45185804367	1678
1.45258307457	1679
1.45352602005	1678
1.45377802849	1678
1.4546251297	1677
1.45536208153	1675
1.45602822304	1671
1.4569811821	1670
1.45737814903	1668
1.45835113525	1666
1.45878911018	1664
1.45951604843	1662
1.46048521996	1659
1.46088910103	1657
1.46161103249	1655
1.46232700348	1652
1.46305322647	1650
1.46401715279	1648
1.46438407898	1646
1.46515703201	1643
1.46611404419	1640
1.46718907356	1636
1.46735215187	1632
1.46822309494	1627
1.46856212616	1623
1.46937203407	1619
1.47026205063	1615
1.47070503235	1612
1.47169113159	1609
1.47218823433	1607
1.47316718102	1606
1.47350001335	1606
1.4742910862	1605
1.47501301765	1607
1.47570919991	1608
1.47645521164	1611
1.47714710236	1612
1.47781801224	1614
1.47851610184	1617
1.47922706604	1619
1.48018121719	1621
1.48055815697	1624
1.48132300377	1626
1.48225021362	1628
1.4826900959	1632
1.48362708092	1634
1.48407316208	1634
1.48503422737	1634
1.48552012444	1635
1.48648715019	1635
1.48691916466	1635
1.48761916161	1632
1.48832821846	1633
1.48929214478	1630
1.48974514008	1629
1.49046421051	1628
1.4911711216	1625
1.49185299873	1625
1.49282407761	1622
1.49318218231	1620
1.49396300316	1618
1.49495720863	1619
1.49598312378	1613
1.49609518051	1612
1.49701309204	1611
1.49739909172	1609
1.4981110096	1608
1.49883913994	1607
1.49949121475	1608
1.50017023087	1608
1.50096106529	1609
1.50167417526	1611
1.50264215469	1610
1.50298309326	1608
1.50378417969	1608
1.50446605682	1608
1.50542521477	1608
1.50590014458	1606
1.50658512115	1606
1.50748300552	1607
1.50791621208	1606
1.50866818428	1607
1.50942611694	1608
1.51018500328	1607
1.51085710526	1604
1.51151609421	1606
1.51247310638	1604
1.51285719872	1604
1.51360821724	1601
1.51432108879	1601
1.5150141716	1600
1.51559114456	1600
1.51641702652	1598
1.51710915565	1599
1.5180580616	1598
1.51845622063	1597
1.51920700073	1597
1.52016615868	1599
1.52057218552	1598
1.5213432312	1598
1.52229404449	1598
1.52265000343	1600
1.52369403839	1602
1.52405714989	1603
1.52484107018	1605
1.52554702759	1606
1.52625322342	1608
1.52722215652	1611
1.52758002281	1613
1.52834916115	1614
1.52935409546	1616
1.52964401245	1617
1.53064012527	1618
1.53108310699	1620
1.53202700615	1621
1.53238010406	1623
1.5331401825	1625
1.53410506248	1626
1.53465104103	1626
1.53539299965	1627
1.53609704971	1625
1.5370490551	1626
1.53740501404	1624
1.53818321228	1625
1.53896713257	1624
1.53958415985	1623
1.54055404663	1623
1.54081702232	1623
1.54164910316	1623
1.54268217087	1622
1.54300403595	1621
1.54379606247	1621
1.54448413849	1620
1.54515719414	1620
1.54597401619	1618
1.54683709145	1617
1.54728507996	1617
1.54801821709	1617
1.54870605469	1617
1.54966902733	1616
1.55004000664	1618
1.55080509186	1618
1.55151200294	1617
1.55222010612	1617
1.55296206474	1618
1.55364513397	1619
1.55455517769	1618
1.55491113663	1618
1.55569601059	1617
1.55640506744	1618
1.5570909977	1618
1.5580561161	1619
1.55838108063	1617
1.55917906761	1619
1.55989003181	1618
1.56057500839	1618
1.56156921387	1617
1.56265306473	1617
1.56281399727	1616
1.56335115433	1616
1.56405711174	1615
1.5648651123	1614
1.56582307816	1615
1.56619119644	1615
1.56722211838	1617
1.56756711006	1616
1.56838202477	1616
1.56906700134	1618
1.57002615929	1616
1.57044816017	1618
1.57142519951	1618
1.57183718681	1618
1.57280802727	1617
1.5732011795	1618
1.57387804985	1619
1.57489418983	1621
1.57529115677	1625
1.57603216171	1627
1.57669520378	1628
1.57742810249	1630
1.57812905312	1633
1.57889699936	1634
1.57947802544	1636
1.58022713661	1636
1.58091902733	1638
1.58164405823	1639
1.58260011673	1639
1.58299708366	1640
1.58396220207	1641
1.58433222771	1640
1.58507108688	1640
1.58582401276	1640
1.58646512032	1640
1.5874311924	1640
1.58783006668	1640
1.58882117271	1641
1.58930015564	1642
1.58998608589	1644
1.5906920433	1644
1.59146213531	1647
1.59216809273	1647
1.59320116043	1649
1.59362721443	1652
1.59436011314	1655
1.59500813484	1656
1.59578919411	1655
1.59646511078	1656
1.59715414047	1657
1.59784221649	1654
1.59856915474	1655
1.59929800034	1654
1.5999891758	1654
1.60099601746	1654
1.60126900673	1653
1.60209417343	1652
1.60304021835	1650
1.60322999954	1650
1.60418510437	1648
1.60488009453	1646
1.60560202599	1646
1.60654306412	1647
1.60692501068	1645
1.60801720619	1645
1.60812616348	1646
1.60904216766	1645
1.60975503922	1643
1.61071515083	1643
1.61109614372	1642
1.6121301651	1642
1.61252403259	1640
1.61348319054	1637
1.61399102211	1635
1.61471199989	1630
1.6154282093	1629
1.61611008644	1624
1.61680316925	1619
1.61750721931	1615
1.61846899986	1612
1.6189520359	1606
1.61954903603	1602
1.62032914162	1598
1.62121009827	1595
1.62149500847	1594
1.62234115601	1590
1.62299013138	1587
1.62372708321	1585
1.62472200394	1586
1.62589406967	1585
1.62604808807	1584
1.62664103508	1582
1.62736606598	1582
1.62796020508	1583
1.62887811661	1583
1.62934803963	1585
1.63010716438	1586
1.63117003441	1589
1.63139104843	1590
1.63216900826	1592
1.63293504715	1594
1.63386821747	1596
1.63498806953	1597
1.63511013985	1598
1.63597917557	1598
1.63641405106	1600
1.63737010956	1601
1.63850903511	1602
1.63862705231	1604
1.63926100731	1606
1.63994121552	1607
1.64089417458	1610
1.64205908775	1610
1.64224505424	1612
1.64274311066	1614
1.64344716072	1614
1.64419722557	1613
1.64489102364	1613
1.64559316635	1612
1.64647912979	1611
1.64695715904	1611
1.64770722389	1609
1.64866805077	1609
1.64908003807	1607
1.64976215363	1607
1.6506960392	1607
1.65111923218	1606
1.65185809135	1605
1.65256500244	1604
1.65325903893	1605
1.65391516685	1605
1.65468406677	1604
1.65540719032	1605
1.65607118607	1604
1.65674209595	1604
1.65743613243	1603
1.65820622444	1602
1.65899014473	1600
1.65952801704	1597
1.66055417061	1594
1.66095709801	1591
1.66167402267	1589
1.66263008118	1587
1.66375923157	1585
1.66391205788	1583
1.66449999809	1582
1.66519904137	1582
1.66595602036	1581
1.66684818268	1584
1.66727018356	1585
1.66802811623	1585
1.6687130928	1588
1.66965603828	1588
1.67005515099	1589
1.67078614235	1590
1.67177414894	1592
1.67211413383	1591
1.67322611809	1592
1.67343401909	1591
1.67432904243	1590
1.67502808571	1589
1.67599511147	1589
1.67641019821	1587
1.67735219002	1584
1.67779016495	1583
1.67855119705	1581
1.6792550087	1579
1.67994999886	1577
1.68064022064	1575
1.68133807182	1574
1.68198513985	1573
1.68269014359	1573
1.68345117569	1573
1.68415307999	1573
1.68487811089	1573
1.68581414223	1573
1.68686509132	1573
1.68696808815	1574
1.68757009506	1575
1.68836808205	1576
1.68906617165	1576
1.68975615501	1578
1.69070100784	1580
1.69110417366	1579
1.69182515144	1580
1.69254112244	1579
1.6932311058	1577
1.69397211075	1574
1.69467616081	1571
1.69541120529	1567
1.6960940361	1564
1.69677805901	1561
1.69751119614	1557
1.69848418236	1552
1.69890213013	1550
1.69954705238	1546
1.70059514046	1538
1.70095801353	1529
1.70169520378	1516
1.70259618759	1502
1.70305609703	1484
1.70406508446	1463
1.70447206497	1440
1.70522618294	1415
1.70594215393	1388
1.70661115646	1359
1.70735311508	1329
1.70822906494	1297
1.70864701271	1266
1.70964622498	1235
1.71005010605	1205
1.71105122566	1175
1.71145510674	1144
1.71245121956	1114
1.71286201477	1083
1.71394014359	1052
1.71426606178	1016
1.71499013901	982
1.7156021595	951
1.71658110619	917
1.71668410301	889
1.7177631855	857
1.71786522865	828
1.71904301643	800
1.71914410591	778
1.72020506859	759
1.72030520439	741
1.72144722939	728
1.72155022621	718
1.72269415855	710
1.72279620171	706
1.72393608093	707
1.72403717041	714
1.72477817535	719
1.72575616837	729
1.7258682251	738
1.72696518898	751
1.72706913948	762
1.72820115089	772
1.7283141613	781
1.72932505608	790
1.72942519188	796
1.73060917854	802
1.7307100296	802
1.73137712479	801
1.73252820969	798
1.73262906075	792
1.73373222351	781
1.73383307457	773
1.73499202728	766
1.73509216309	764
1.7361600399	766
1.73626112938	774
1.73731708527	790
1.73741722107	814
1.73861718178	845
1.73871803284	883
1.73983407021	930
1.73993420601	988
1.7406771183	1060
1.74144411087	1153
1.7423760891	1252
1.74272704124	1362
1.74375414848	1479
1.74416518211	1597
1.74492001534	1715
1.74560403824	1832
1.74630308151	1952
1.74699902534	2074
1.74798321724	2188
1.74836015701	2300
1.74930310249	2404
1.74975919724	2499
1.75054311752	2573
1.75147223473	2624
1.75195121765	2653
1.75266003609	2657
1.75334811211	2640
1.75407004356	2601
1.75501418114	2544
1.75537014008	2473
1.75616621971	2391
1.75711202621	2301
1.75746011734	2208
1.75819706917	2112
1.75917100906	2020
1.75953912735	1930
1.76058006287	1847
1.76100206375	1775
1.76197218895	1709
1.76311421394	1655
1.76323318481	1612
1.76384305954	1581
1.76453614235	1562
1.76550102234	1552
1.76590323448	1551
1.76692819595	1556
1.7673060894	1567
1.76805305481	1582
1.76873612404	1596
1.76968312263	1613
1.77009916306	1630
1.77108621597	1644
1.77152919769	1656
1.77229213715	1666
1.77324819565	1673
1.77360415459	1676
1.77436208725	1677
1.77510499954	1676
1.77602601051	1672
1.77645802498	1664
1.77747511864	1657
1.77853107452	1644
1.77865219116	1633
1.77950406075	1622
1.77988910675	1612
1.78095221519	1601
1.78206300735	1591
1.78218317032	1582
1.78279304504	1575
1.78356218338	1569
1.7841989994	1566
1.7849521637	1561
1.78559422493	1560
1.78631019592	1558
1.78726315498	1559
1.78765010834	1561
1.78865408897	1564
1.78906822205	1566
1.79002404213	1568
1.79040002823	1570
1.79126501083	1573
1.79199910164	1575
1.79299521446	1576
1.79310011864	1577
1.79406809807	1576
1.79502916336	1577
1.79528522491	1577
1.79616308212	1575
1.79686307907	1574
1.79783201218	1573
1.79822921753	1570
1.79921507835	1568
1.7995672226	1566
1.80034303665	1563
1.80129909515	1562
1.80170321465	1559
1.80243206024	1557
1.803150177	1555
1.80410909653	1554
1.80450105667	1553
1.8054702282	1553
1.80659914017	1552
1.80671906471	1551
1.80751299858	1551
1.80801415443	1552
1.80875015259	1552
1.80949020386	1553
1.81043815613	1552
1.81086111069	1553
1.81158018112	1553
1.8122780323	1551
1.81298208237	1551
1.81395602226	1551
1.81504917145	1551
1.81522107124	1551
1.81577801704	1550
1.8165140152	1549
1.81744003296	1549
1.81791520119	1547
1.81889605522	1546
1.81910300255	1544
1.82029914856	1542
1.82068800926	1543
1.82145309448	1539
1.82214713097	1538
1.82309603691	1537
1.82351613045	1537
1.82419514656	1535
1.82510614395	1534
1.82554721832	1536
1.82631802559	1533
1.8272562027	1532
1.82768201828	1531
1.82843017578	1531
1.82913804054	1532
1.82982707024	1531
1.8305311203	1532
1.83145523071	1533
1.83191013336	1534
1.8328871727	1536
1.83330202103	1537
1.83402514458	1537
1.83498501778	1538
1.83536219597	1538
1.8361530304	1536
1.83713102341	1536
1.83749508858	1533
1.83850622177	1532
1.83886218071	1530
1.83970403671	1530
1.84028410912	1527
1.84098815918	1525
1.84170413017	1524
1.8424050808	1521
1.84337806702	1519
1.8438000679	1517
1.84455704689	1516
1.84524512291	1514
1.84621405602	1512
1.84736013412	1510
1.84747099876	1509
1.84807801247	1508
1.84869217873	1506
1.8497300148	1506
1.85009813309	1506
1.85084319115	1506
1.8515651226	1504
1.85252523422	1502
1.85293912888	1500
1.85392403603	1500
1.85432100296	1498
1.85537600517	1498
1.85575699806	1498
1.85673522949	1498
1.85715413094	1497
1.85812401772	1497
1.85855913162	1498
1.85932421684	1497
1.86001205444	1496
1.86069607735	1496
1.86140012741	1495
1.86236000061	1494
1.86274504662	1494
1.8634622097	1491
1.86441016197	1491
1.86555218697	1487
1.86565303802	1486
1.86627411842	1483
1.86701703072	1482
1.86766719818	1477
1.86866521835	1475
1.86905121803	1473
1.86983013153	1472
1.87080621719	1470
1.87111616135	1467
1.87215304375	1466
1.87256002426	1464
1.87336707115	1462
1.87402200699	1462
1.8749461174	1461
1.87535405159	1459
1.87612009048	1458
1.87707304955	1456
1.87748217583	1454
1.87828612328	1452
1.8791410923	1451
1.87954807281	1450
1.88059711456	1450
1.88095021248	1448
1.88192510605	1449
1.88305211067	1448
1.88316202164	1447
1.88383316994	1447
1.88448500633	1446
1.88524603844	1443
1.88618803024	1442
1.88659310341	1439
1.88758921623	1438
1.88796019554	1437
1.88905215263	1434
1.88945913315	1433
1.89039111137	1431
1.89079999924	1429
1.89152216911	1427
1.89223909378	1423
1.89291715622	1422
1.89397215843	1419
1.89431715012	1415
1.89511108398	1413
1.89579319954	1410
1.89648008347	1408
1.89741301537	1405
1.89784812927	1404
1.89855909348	1403
1.89947319031	1402
1.90065813065	1402
1.9007730484	1401
1.90138602257	1400
1.90208411217	1400
1.90280103683	1399
1.90378308296	1400
1.90414619446	1400
1.90493202209	1402
1.90560317039	1402
1.90656304359	1403
1.90692305565	1403
1.90766501427	1403
1.90845322609	1402
1.90915608406	1401
1.90985512733	1401
1.91055607796	1400
1.91145920753	1398
1.91194319725	1397
1.91300010681	1397
1.91328907013	1397
1.91407608986	1395
1.91474699974	1395
1.91548514366	1397
1.91618108749	1398
1.91687321663	1399
1.91757822037	1398
1.91849422455	1399
1.91889500618	1400
1.91966414452	1400
1.92060422897	1400
1.92105102539	1400
1.92180204391	1399
1.92275905609	1401
1.9231710434	1400
1.92415118217	1402
1.92457318306	1398
1.92527723312	1400
1.92600917816	1402
1.92668509483	1402
1.92736721039	1403
1.92824602127	1402
1.92867612839	1404
1.9294090271	1405
1.93013119698	1406
1.93091416359	1407
1.93181300163	1410
1.93223905563	1411
1.93298411369	1415
1.93395018578	1417
1.93433523178	1418
1.93512320518	1421
1.93580317497	1421
1.93651819229	1423
1.93742513657	1426
1.93795204163	1426
1.93858122826	1428
1.93961000443	1429
1.93998217583	1431
1.94098711014	1431
1.94142413139	1434
1.94208717346	1436
1.94311213493	1438
1.94418621063	1438
1.94430303574	1440
1.94493722916	1442
1.94593715668	1443
1.94697618484	1447
1.94710803032	1449
1.94777321815	1453
1.94844913483	1457
1.94916510582	1460
1.95012807846	1464
1.95053100586	1467
1.95147109032	1469
1.95263910294	1473
1.95274114609	1473
1.95330810547	1476
1.95430803299	1479
1.95473217964	1481
1.95543813705	1483
1.95633411407	1486
1.9567990303	1491
1.95774817467	1495
1.95818400383	1501
1.95894408226	1504
1.95967912674	1508
1.96035504341	1512
1.96105623245	1516
1.96173810959	1519
1.962703228	1523
1.96311116219	1529
1.9638671875	1534
1.96456003189	1541
1.96555900574	1547
1.96595907211	1552
1.96671009064	1557
1.96761918068	1561
1.96805906296	1566
1.96880722046	1569
1.96951723099	1572
1.97022223473	1573
1.97097110748	1577
1.97182202339	1579
1.97223305702	1583
1.97300720215	1586
1.97367119789	1591
1.97437119484	1596
1.97537517548	1600
1.9758310318	1604
1.97647309303	1609
1.97749519348	1613
1.97786712646	1616
1.97863817215	1622
1.97936606407	1624
1.98030209541	1628
1.98074913025	1631
1.98169803619	1634
1.98209214211	1639
1.98309922218	1642
1.98352813721	1646
1.98450708389	1650
1.98492312431	1653
1.98597717285	1656
1.98632121086	1660
1.98705816269	1664
1.98803710938	1667
1.98842716217	1671
1.98918700218	1674
1.98988819122	1679
1.99083018303	1682
1.99127316475	1687
1.99198007584	1689
1.99266219139	1694
1.99341011047	1696
1.99432301521	1698
1.99471211433	1699
1.99572014809	1700
1.99604201317	1702
1.99691414833	1703
1.99784803391	1704
1.99824619293	1706
1.99927520752	1707
1.99963903427	1708
2.00065612793	1710
2.00103712082	1711
2.00180101395	1712
2.00255608559	1712
2.00347709656	1714
2.00393915176	1714
2.00461912155	1715
2.00557613373	1715
2.00586104393	1715
2.00671505928	1715
2.00767016411	1716
2.00806307793	1719
2.00910305977	1719
2.00949311256	1720
2.01025915146	1721
2.01097607613	1722
2.01188111305	1723
2.01227116585	1723
2.01302814484	1723
2.0137450695	1723
2.01444721222	1723
2.01512503624	1723
2.01586222649	1721
2.01657915115	1722
2.01750302315	1721
2.01791810989	1720
2.01863002777	1719
2.01937913895	1718
2.02005720139	1716
2.021048069	1716
2.02143716812	1716
2.02243614197	1716
2.02282309532	1718
2.02383303642	1719
2.02423620224	1721
2.02495312691	1723
2.02570319176	1724
2.02669405937	1726
2.0270512104	1726
2.02780008316	1728
2.02879905701	1729
2.02916908264	1729
2.03015708923	1729
2.03055620193	1729
2.03136110306	1729
2.03203415871	1729
2.03300619125	1729
2.0333712101	1730
2.03438210487	1730
2.03477311134	1730
2.03577423096	1727
2.03616309166	1725
2.03689622879	1725
2.03759813309	1724
2.03829216957	1723
2.03899621964	1724
2.03971099854	1724
2.04039621353	1723
2.04109215736	1724
2.04181909561	1725
2.0427031517	1726
2.04314422607	1726
2.04395413399	1726
2.04485201836	1724
2.04522514343	1725
2.04632210732	1725
2.04666805267	1726
2.04738521576	1726
2.04815220833	1726
2.04879808426	1726
2.04976916313	1728
2.05013608932	1728
2.05115103722	1728
2.05159521103	1727
2.0523121357	1725
2.05304908752	1724
2.05377316475	1722
2.05448508263	1722
2.05542421341	1720
2.05656218529	1719
2.05668616295	1717
2.05744814873	1714
2.05791401863	1714
2.0586771965	1714
2.0595471859	1711
2.06001710892	1709
2.06105422974	1708
2.06146216393	1707
2.06219911575	1706
2.06286501884	1705
2.06359601021	1705
2.06431102753	1705
2.06499814987	1705
2.06569123268	1705
2.06663417816	1706
2.06707406044	1707
2.06803202629	1707
2.06848311424	1707
2.06947207451	1707
2.06984210014	1706
2.07049703598	1705
2.07136511803	1704
2.07203102112	1703
2.07272219658	1702
2.07342720032	1703
2.07438516617	1701
2.07478404045	1701
2.07545018196	1699
2.07643818855	1699
2.07692313194	1698
2.07785511017	1697
2.07822608948	1696
2.07901406288	1695
2.07995700836	1694
2.08031320572	1696
2.08136200905	1694
2.08244800568	1696
2.08262014389	1695
2.0831580162	1695
2.08414721489	1695
2.08451318741	1694
2.08535718918	1692
2.08605408669	1690
2.08702015877	1690
2.08729100227	1688
2.08815002441	1686
2.08885216713	1687
2.08955907822	1685
2.09023523331	1685
2.09096002579	1685
2.09201812744	1685
2.09219312668	1684
2.09328722954	1684
2.09371709824	1681
2.09474611282	1681
2.09503102303	1680
2.0958981514	1678
2.09684419632	1677
2.09722709656	1677
2.09797310829	1677
2.09862518311	1677
2.09933519363	1677
2.10010814667	1676
2.10105609894	1677
2.10143613815	1676
2.10235118866	1676
2.1034681797	1676
2.10377407074	1675
2.10444021225	1675
2.10563921928	1675
2.10574817657	1675
2.10664010048	1676
2.10704922676	1675
2.10781812668	1676
2.10873317719	1676
2.10918712616	1678
2.11008501053	1678
2.1105120182	1677
2.11130213737	1677
2.11227107048	1676
2.11258006096	1675
2.11330223083	1675
2.11410522461	1675
2.11517715454	1674
2.11537003517	1673
2.11612701416	1672
2.11715221405	1671
2.11746621132	1672
2.11827802658	1671
2.11896419525	1671
2.11997699738	1669
2.12034010887	1670
2.12138605118	1669
2.1217341423	1668
2.12262701988	1666
2.12300205231	1667
2.12385416031	1667
2.12465810776	1668
2.12524700165	1668
2.12627220154	1667
2.12673306465	1666
2.12766623497	1664
2.12791609764	1665
2.12885212898	1665
2.12950015068	1665
2.13050508499	1667
2.13084721565	1666
2.13197422028	1666
2.13217711449	1667
2.13296318054	1669
2.1337480545	1670
2.13443112373	1670
2.13536715508	1670
2.13583803177	1669
2.13656210899	1669
2.13721013069	1669
2.13819408417	1670
2.13860821724	1669
2.13938808441	1670
2.14006304741	1671
2.1407520771	1670
2.14145803452	1670
2.14212608337	1671
2.14309501648	1671
2.14349722862	1671
2.14453315735	1671
2.14486312866	1671
2.14571619034	1670
2.14641308784	1673
2.14707016945	1675
2.14809203148	1676
2.14846920967	1677
2.14924407005	1679
2.14994907379	1678
2.15062618256	1679
2.15135908127	1678
2.15228915215	1677
2.15271019936	1676
2.15338420868	1675
2.15416908264	1674
2.15485405922	1673
2.1558201313	1672
2.15619707108	1671
2.15714621544	1670
2.1575961113	1671
2.15858101845	1673
2.1590192318	1672
2.15974211693	1671
2.1604552269	1670
2.16116714478	1670
2.16211915016	1669
2.16254019737	1667
2.16330909729	1668
2.16395115852	1667
2.1648170948	1668
2.16521000862	1667
2.16627812386	1669
2.16740012169	1669
2.16751217842	1670
2.16838717461	1670
2.16878700256	1669
2.16958713531	1670
2.1703350544	1671
2.17125511169	1672
2.1716401577	1674
2.17239403725	1676
2.1731262207	1678
2.17379403114	1681
2.17476010323	1683
2.17510914803	1686
2.17590904236	1689
2.17661905289	1691
2.17731714249	1692
2.17827415466	1694
2.17866301537	1695
2.17941808701	1696
2.18010902405	1696
2.18078422546	1696
2.18154001236	1697
2.18223404884	1698
2.18293213844	1699
2.18389606476	1700
2.18429613113	1699
2.18504810333	1699
2.18601322174	1699
2.18638205528	1698
2.18714022636	1697
2.18809008598	1696
2.18849420547	1695
2.18947601318	1693
2.18995714188	1692
2.1905901432	1690
2.19129419327	1690
2.19195604324	1689
2.1926882267	1690
2.19339704514	1688
2.19416022301	1688
2.19477319717	1688
2.1955780983	1690
2.19625902176	1689
2.19699406624	1692
2.19791412354	1693
2.19822621346	1695
2.19895911217	1695
2.19969820976	1697
2.20048213005	1697
2.2010781765	1696
2.20182013512	1696
2.2027630806	1695
2.20311903954	1692
2.20416712761	1690
2.20463418961	1688
2.20537805557	1687
2.20604300499	1684
2.20697116852	1682
2.20814919472	1680
2.20826220512	1676
2.20889019966	1675
2.20960903168	1669
2.21055006981	1666
2.21089816093	1664
2.2116792202	1657
2.21237921715	1653
2.21329808235	1649
2.21369814873	1648
2.21470308304	1645
2.21516418457	1643
2.216173172	1642
2.21655201912	1643
2.21730613708	1644
2.21802711487	1643
2.21871304512	1643
2.21942615509	1644
2.22010612488	1645
2.2207531929	1647
2.22146320343	1647
2.22220802307	1650
2.22317218781	1652
2.22345709801	1654
2.22432208061	1656
2.22527003288	1657
2.22569608688	1657
2.22642803192	1658
2.22713112831	1655
2.22786903381	1654
2.22856020927	1652
2.22924804688	1650
2.23019599915	1651
2.23061108589	1648
2.23151111603	1648
2.23195815086	1648
2.2327580452	1648
2.23344111443	1648
2.23416900635	1646
2.2351231575	1645
2.23621606827	1644
2.236328125	1643
2.23701620102	1642
2.23793816566	1641
2.23832321167	1642
2.23909020424	1642
2.24001908302	1643
2.2404282093	1644
2.24136900902	1643
2.24183607101	1646
2.24252915382	1646
2.24330019951	1645
2.24394321442	1646
2.2446911335	1645
2.24538421631	1644
2.24608111382	1644
2.24674105644	1643
2.2475001812	1643
2.24847722054	1641
2.24890112877	1641
2.24986815453	1640
2.25028300285	1640
2.25100207329	1638
2.25171804428	1638
2.25238609314	1635
2.25311303139	1634
2.25384616852	1633
2.25477218628	1630
2.25518202782	1630
2.25619411469	1629
2.25658607483	1627
2.25733423233	1628
2.25828504562	1628
2.25869512558	1628
2.25945210457	1628
2.26039910316	1628
2.26078915596	1627
2.26154708862	1625
2.26247501373	1624
2.26296615601	1623
2.26362299919	1622
2.26461219788	1620
2.26568007469	1618
2.26584005356	1617
2.26640415192	1617
2.26736617088	1615
2.26782107353	1615
2.26857614517	1614
2.26951503754	1613
2.27062821388	1615
2.27078104019	1615
2.27138614655	1616
2.27231407166	1617
2.27350306511	1618
2.27366304398	1620
2.27412009239	1620
2.27481508255	1622
2.27546215057	1622
2.27624702454	1622
2.27723002434	1620
2.27764415741	1618
2.27838516235	1618
2.27908015251	1618
2.27977919579	1617
2.28074812889	1614
2.28115200996	1614
2.28189921379	1613
2.28287601471	1610
2.2839641571	1608
2.28414320946	1606
2.28503108025	1600
2.28604507446	1596
2.28621721268	1591
2.28701519966	1585
2.28734612465	1581
2.28820919991	1578
2.2891600132	1574
2.28956818581	1572
2.29056406021	1568
2.29098105431	1566
2.29173612595	1561
2.29266905785	1553
2.29307723045	1542
2.29376006126	1527
2.29454922676	1510
2.29546022415	1492
2.29594016075	1468
2.29659104347	1444
2.29730820656	1418
2.29793000221	1391
2.29871106148	1361
2.2994120121	1330
2.30036401749	1301
2.30077409744	1270
2.30177211761	1239
2.30216503143	1208
2.30292010307	1176
2.3038392067	1145
2.30428409576	1115
2.30502414703	1082
2.30570816994	1048
2.3066740036	1012
2.30788016319	980
2.30798101425	950
2.30911111832	922
2.30921220779	899
2.30944800377	876
2.31051707268	858
2.31061720848	842
2.31171321869	830
2.31181406975	822
2.31280612946	815
2.31290721893	812
2.31418609619	811
2.31428623199	812
2.31537914276	816
2.31548023224	820
2.31630516052	826
2.31725311279	832
2.31735801697	837
2.31847906113	839
2.31857919693	841
2.31971812248	839
2.31981921196	836
2.32091212273	830
2.3210132122	820
2.32212805748	808
2.32222819328	792
2.32334017754	771
2.32344102859	748
2.32458114624	722
2.3246819973	696
2.32579612732	672
2.3258972168	655
2.32701802254	641
2.32711815834	635
2.32824707031	636
2.32834720612	647
2.32944202423	667
2.32954621315	697
2.33069419861	737
2.33082413673	790
2.3314511776	855
2.33240103722	932
2.33250403404	1021
2.33348608017	1139
2.33421015739	1264
2.33515405655	1395
2.33550810814	1530
2.33633208275	1667
2.33722305298	1805
2.33766913414	1950
2.33867311478	2091
2.3390610218	2231
2.33998012543	2359
2.34037017822	2477
2.34143304825	2577
2.34187507629	2652
2.34286904335	2699
2.34317803383	2721
2.34404802322	2712
2.34502005577	2681
2.34532308578	2626
2.34613919258	2550
2.34686017036	2462
2.34779500961	2367
2.34812617302	2262
2.34892916679	2155
2.34988713264	2048
2.35029101372	1944
2.35119509697	1848
2.35171723366	1761
2.35263109207	1683
2.35299921036	1619
2.35380315781	1566
2.3548271656	1530
2.35519814491	1506
2.3559691906	1494
2.35666108131	1494
2.35735917091	1504
2.35801815987	1518
2.3587372303	1541
2.3594930172	1564
2.36038923264	1590
2.3607840538	1614
2.36150407791	1638
2.36254310608	1659
2.36298513412	1678
2.36368918419	1693
2.36465001106	1702
2.36575818062	1708
2.36591911316	1709
2.3664932251	1709
2.36719202995	1702
2.36788320541	1693
2.36859416962	1683
2.36929512024	1671
2.37001514435	1658
2.37070012093	1645
2.37142109871	1633
2.37212014198	1622
2.37280917168	1611
2.37376618385	1600
2.37489700317	1593
2.37506318092	1585
2.37553715706	1580
2.37656211853	1576
2.37697219849	1572
2.37773323059	1570
2.37842202187	1570
2.379114151	1569
2.37985420227	1571
2.38082122803	1574
2.38189101219	1577
2.38200521469	1580
2.38261008263	1585
2.3835310936	1589
2.38404417038	1591
2.38479018211	1593
2.38542914391	1595
2.38614606857	1595
2.38711500168	1595
2.38732409477	1595
2.38821601868	1595
2.38916015625	1594
2.39024209976	1592
2.39040517807	1590
2.39130616188	1589
2.39235901833	1588
2.39255619049	1585
2.39317822456	1582
2.39377617836	1579
2.39458012581	1577
2.39552903175	1573
2.39593410492	1570
2.39668416977	1569
2.39762711525	1569
2.39797401428	1568
2.39879107475	1567
2.39974617958	1567
2.40009617805	1566
2.40088915825	1566
2.40183520317	1565
2.40219306946	1564
2.40304613113	1563
2.40367007256	1563
2.40445303917	1564
2.40535616875	1564
2.40566921234	1565
2.40645122528	1565
2.40737605095	1567
2.40789723396	1567
2.40884900093	1570
2.40925312042	1569
2.41000509262	1568
2.41071009636	1567
2.41142821312	1567
2.41237306595	1566
2.41275715828	1566
2.41351699829	1565
2.41447114944	1562
2.41487407684	1561
2.41556406021	1559
2.41655921936	1558
2.41697001457	1556
2.41802000999	1554
2.41833019257	1552
2.41941213608	1550
2.41973400116	1549
2.42049407959	1547
2.4211871624	1547
2.42189621925	1546
2.42258310318	1546
2.42331409454	1545
2.42399907112	1546
2.42492008209	1546
2.42536711693	1548
2.42631602287	1547
2.42679309845	1546
2.42777705193	1544
2.42816305161	1544
2.42889809608	1542
2.4296040535	1541
2.43027305603	1541
2.4313211441	1540
2.43152523041	1539
2.43240809441	1540
2.4330739975	1540
2.43383216858	1539
2.43476009369	1539
2.43519306183	1537
2.4359960556	1534
2.43706512451	1533
2.43727302551	1532
2.43818211555	1531
2.43904900551	1530
2.43938302994	1530
2.4401550293	1530
2.44111514091	1531
2.4414331913	1530
2.4422121048	1530
2.44315314293	1530
2.44400906563	1528
2.44513511658	1526
2.44526720047	1524
2.44612002373	1524
2.44632601738	1522
2.44754004478	1521
2.44786310196	1519
2.44885921478	1519
2.44995307922	1517
2.45007610321	1515
2.45057320595	1514
2.451390028	1511
2.45207309723	1510
2.45278716087	1507
2.45347309113	1505
2.45411705971	1504
2.45489811897	1504
2.45591211319	1501
2.4561650753	1499
2.45698022842	1498
2.45802521706	1495
2.45823717117	1494
2.4590780735	1491
2.46014404297	1489
2.4605140686	1487
2.46150922775	1484
2.46188616753	1482
2.46264505386	1480
2.46338319778	1478
2.46433401108	1478
2.46469306946	1477
2.46572899818	1476
2.46682310104	1477
2.4669470787	1476
2.46758413315	1475
2.46833705902	1473
2.46921610832	1471
2.46960520744	1469
2.47040104866	1467
2.4713511467	1466
2.47164702415	1464
2.47248315811	1464
2.47311711311	1462
2.47410511971	1461
2.47448301315	1457
2.47527718544	1456
2.4759721756	1455
2.47697710991	1451
2.47726106644	1448
2.47830414772	1446
2.47865700722	1443
2.4794690609	1439
2.48041605949	1437
2.48079419136	1434
2.48155212402	1430
2.48224520683	1429
2.48322200775	1427
2.48362612724	1423
2.48439216614	1420
2.48507714272	1417
2.48576617241	1414
2.48645305634	1412
2.48739504814	1409
2.48850607872	1408
2.48864722252	1404
2.48950719833	1403
2.48989605904	1402
2.49074101448	1401
2.49143815041	1400
2.49206709862	1401
2.49278306961	1401
2.49349808693	1402
2.4942240715	1401
2.49517011642	1403
2.49553704262	1403
2.49631810188	1405
2.49726700783	1405
2.49763202667	1404
2.49843811989	1404
2.49913406372	1404
2.50003218651	1403
2.5004901886	1404
2.50149512291	1404
2.50194406509	1404
2.50260305405	1403
2.50330901146	1402
2.50401616096	1401
2.50496315956	1401
2.50540208817	1400
2.50649809837	1401
2.5074801445	1399
2.50764203072	1399
2.50824403763	1399
2.50900506973	1398
2.50963711739	1397
2.51034712791	1396
2.51136422157	1394
2.51171302795	1393
2.51271915436	1392
2.51309704781	1390
2.51377916336	1388
2.51452302933	1388
2.51544308662	1389
2.51597619057	1389
2.51666808128	1388
2.5173830986	1388
2.51807904243	1389
2.51902604103	1389
2.5193002224	1390
2.52046704292	1391
2.52082014084	1393
2.52186608315	1396
2.52221918106	1398
2.52328705788	1401
2.52357912064	1405
2.52437210083	1407
2.52532505989	1410
2.5257101059	1412
2.52658414841	1414
2.52730607986	1416
2.52816319466	1418
2.52858614922	1418
2.52935123444	1419
2.53028607368	1420
2.53066921234	1420
2.5317440033	1421
2.5320391655	1421
2.53309202194	1421
2.53348302841	1421
2.5342400074	1422
2.53519010544	1422
2.53556323051	1424
2.5363650322	1423
2.53703904152	1424
2.5376791954	1426
2.53873920441	1429
2.53904700279	1431
2.53981018066	1435
2.54083418846	1438
2.54197621346	1443
2.54210019112	1448
2.54287910461	1452
2.54331612587	1457
2.54431509972	1461
2.54546117783	1464
2.54558205605	1468
2.54650402069	1473
2.54677700996	1476
2.54752707481	1479
2.54830002785	1483
2.54903507233	1487
2.549929142	1491
2.55031704903	1496
2.55108714104	1500
2.55177617073	1504
2.55249404907	1508
2.55321311951	1512
2.55390715599	1517
2.55484604836	1521
2.55526614189	1527
2.55601906776	1532
2.55670213699	1539
2.55741906166	1544
2.55811715126	1550
2.55902314186	1554
2.55932712555	1559
2.56017422676	1564
2.56112718582	1567
2.56156420708	1571
2.56231617928	1575
2.56301903725	1578
2.56402420998	1583
2.5643851757	1587
2.56512212753	1590
2.56584501266	1594
2.56654715538	1598
2.56750416756	1604
2.56789016724	1608
2.56866502762	1611
2.5696041584	1615
2.57067704201	1620
2.57080101967	1625
2.57172322273	1630
2.57211208344	1634
2.57286810875	1639
2.57351112366	1644
2.57447123528	1651
2.57493710518	1656
2.57588100433	1661
2.57626104355	1666
2.57734417915	1669
2.57773208618	1674
2.57837915421	1678
2.57918405533	1681
2.58014202118	1683
2.58053421974	1687
2.58127808571	1689
2.58223319054	1692
2.58262205124	1696
2.58341622353	1698
2.58436703682	1702
2.58468413353	1703
2.58550000191	1704
2.58619809151	1706
2.58688116074	1706
2.58760404587	1709
2.58829712868	1710
2.58917212486	1711
2.58963108063	1713
2.59037709236	1715
2.5913670063	1718
2.59168720245	1720
2.5927541256	1722
2.59309220314	1723
2.59391212463	1724
2.59479808807	1725
2.5953040123	1726
2.59602808952	1726
2.59702801704	1726
2.59736514091	1728
2.59827518463	1728
2.59878516197	1730
2.59948301315	1732
2.60024213791	1732
2.60118222237	1734
2.60223221779	1734
2.60234117508	1735
2.60302710533	1735
2.60374307632	1735
2.60439515114	1737
2.60535001755	1737
2.60574316978	1737
2.60674905777	1738
2.60795903206	1737
2.60814809799	1738
2.60857105255	1740
2.60929608345	1740
2.61000108719	1742
2.61071515083	1744
2.61165308952	1743
2.61206007004	1744
2.61282420158	1745
2.61353302002	1745
2.61422610283	1745
2.61517214775	1746
2.61555600166	1745
2.61632013321	1746
2.61727809906	1747
2.61761617661	1745
2.61865711212	1745
2.6190931797	1743
2.61984705925	1741
2.6205201149	1741
2.62148404121	1740
2.62191700935	1738
2.62262511253	1739
2.62336611748	1739
2.62429904938	1738
2.62466907501	1738
2.62548112869	1737
2.62640118599	1738
2.62678408623	1737
2.62747120857	1735
2.62825012207	1734
2.62916111946	1733
2.62964010239	1732
2.63034701347	1733
2.63134813309	1734
2.63175606728	1734
2.63251209259	1735
2.63315916061	1736
2.63385915756	1738
2.63457202911	1737
2.63551521301	1737
2.6359140873	1738
2.63666820526	1739
2.63733506203	1739
2.63806819916	1740
2.63878417015	1743
2.63948822021	1742
2.64048314095	1742
2.64166617393	1742
2.6417992115	1742
2.64228200912	1741
2.64294505119	1739
2.64398622513	1738
2.64437413216	1734
2.64511418343	1733
2.64606118202	1732
2.64711809158	1730
2.64725708961	1729
2.64798808098	1728
2.6486260891	1725
2.64959216118	1725
2.64996910095	1725
2.65066003799	1723
2.65147900581	1720
2.65242505074	1721
2.65279603004	1718
2.65354919434	1717
2.65418410301	1715
2.65521812439	1715
2.65558218956	1713
2.65636920929	1713
2.65718507767	1712
2.65774703026	1714
2.65875720978	1714
2.6590681076	1714
2.65988707542	1714
2.66086316109	1716
2.66116809845	1716
2.66203022003	1719
2.66269612312	1718
2.66350603104	1720
2.66470813751	1722
2.66481804848	1723
2.66549921036	1722
2.66617512703	1723
2.6668150425	1725
2.66780805588	1723
2.66809916496	1722
2.66893720627	1722
2.6697101593	1721
2.67045521736	1718
2.67136001587	1717
2.67172622681	1714
2.6725051403	1712
2.67323207855	1714
2.67392110825	1712
2.67457509041	1710
2.67550802231	1711
2.67597007751	1709
2.67703318596	1708
2.67729210854	1707
2.67815303802	1706
2.67877101898	1704
2.67953515053	1704
2.68025612831	1704
2.68093919754	1704
2.68164610863	1704
2.6826031208	1705
2.68301105499	1706
2.68373703957	1707
2.68444705009	1708
2.68539309502	1709
2.68579912186	1708
2.68647909164	1708
2.68727707863	1707
2.68797802925	1707
2.68867015839	1708
2.68938016891	1706
2.69032621384	1704
2.69141721725	1704
2.69152808189	1705
2.69217514992	1706
2.69313120842	1706
2.69351410866	1704
2.69427704811	1703
2.69502806664	1703
2.69594907761	1701
2.69622015953	1701
2.69733810425	1700
2.69763112068	1698
2.69843316078	1698
2.69941115379	1698
2.69973015785	1698
2.70059609413	1697
2.70135116577	1697
2.70202708244	1696
2.7026860714	1696
2.70351314545	1696
2.70406222343	1695
2.70481204987	1694
2.70580720901	1693
2.7060379982	1692
2.70690917969	1692
2.70750713348	1692
2.70858621597	1691
2.70881915092	1691
2.70972108841	1691
2.71066522598	1692
2.71097207069	1691
2.71208119392	1692
2.71247601509	1695
2.71322822571	1696
2.7139441967	1697
2.71464705467	1698
2.71549201012	1698
2.71587705612	1698
2.71701622009	1699
2.71732521057	1699
2.71813011169	1699
2.71909022331	1696
2.71932005882	1696
2.72022914886	1695
2.72112202644	1695
2.72152113914	1692
2.72226214409	1692
2.72321009636	1692
2.72363901138	1692
2.72464418411	1692
2.725908041	1694
2.72607111931	1694
2.7263982296	1694
2.72719120979	1694
2.7278380394	1694
2.7285861969	1696
2.72927808762	1698
2.72992014885	1697
2.73060917854	1698
2.73148918152	1700
2.73207902908	1700
2.73289012909	1700
2.73354315758	1700
2.73428106308	1700
2.73518800735	1698
2.7354991436	1698
2.7363820076	1698
2.7370262146	1698
2.73796701431	1697
2.73836302757	1698
2.73911309242	1696
2.73981404305	1696
2.74052214622	1696
2.74147319794	1696
2.74186420441	1695
2.74257206917	1695
2.74336600304	1695
2.74436306953	1693
2.7447450161	1693
2.74566507339	1692
2.74610114098	1692
2.74690008163	1693
2.74788618088	1693
2.74829316139	1693
2.74902510643	1694
2.75003409386	1695
2.75107216835	1697
2.75118207932	1699
2.75210618973	1701
2.7524960041	1701
2.75349903107	1705
2.75390100479	1707
2.75456309319	1710
2.7552280426	1712
2.7560532093	1716
2.75673317909	1717
2.75769019127	1722
2.75809121132	1724
2.75879001617	1726
2.75949811935	1729
2.76041913033	1730
2.76085114479	1731
2.76167416573	1731
2.76262021065	1733
2.76301312447	1734
2.76403403282	1735
2.76442122459	1734
2.76532006264	1734
2.76583909988	1735
2.7665450573	1734
2.76729822159	1734
2.76802206039	1734
2.76867103577	1732
2.76963114738	1732
2.77001810074	1732
2.77077722549	1731
2.77169322968	1732
2.77209711075	1733
2.77307105064	1735
2.77347016335	1734
2.77415108681	1735
2.77519702911	1735
2.77554607391	1734
2.77640104294	1734
2.77734804153	1733
2.77770709991	1732
2.77873921394	1732
2.77910709381	1732
2.78018307686	1731
2.78053307533	1732
2.7815721035	1730
2.78193211555	1730
2.78271007538	1728
2.78343105316	1728
2.78411602974	1723
2.78480100632	1723
2.78576421738	1720
2.78613805771	1718
2.78714799881	1717
2.78750610352	1716
2.78849601746	1717
2.78892016411	1715
2.78968715668	1713
2.79038310051	1714
2.79138112068	1713
2.79244017601	1713
2.79255104065	1709
2.79323005676	1706
2.79392313957	1703
2.79463505745	1700
2.79546809196	1696
2.79600119591	1693
2.79675912857	1689
2.79769301414	1686
2.79806613922	1683
2.79885220528	1682
2.79981923103	1680
2.80017518997	1679
2.80100917816	1677
2.80190300941	1674
2.80301809311	1672
2.80314302444	1671
2.80375504494	1671
2.80473017693	1669
2.80501008034	1669
2.80590009689	1668
2.80684709549	1667
2.80721211433	1668
2.80795407295	1670
2.80868005753	1669
2.80960607529	1669
2.81069517136	1669
2.81082820892	1669
2.81141209602	1668
2.8121471405	1668
2.81286501884	1669
2.81355500221	1669
2.81451106071	1670
2.81493020058	1672
2.81599020958	1673
2.81633615494	1674
2.81705904007	1677
2.81803107262	1678
2.81840014458	1679
2.81915521622	1680
2.8197760582	1682
2.82083106041	1682
2.82118201256	1682
2.82226109505	1684
2.82261109352	1683
2.82342100143	1683
2.8241891861	1683
2.82479810715	1683
2.82547211647	1682
2.82643318176	1680
2.827450037	1679
2.82755303383	1676
2.82826304436	1675
2.82896518707	1673
2.82994413376	1670
2.83030509949	1670
2.83115911484	1668
2.83183908463	1666
2.83253622055	1664
2.83323121071	1663
2.83401203156	1662
2.83460021019	1660
2.8353831768	1658
2.83632302284	1657
2.83669018745	1657
2.83767104149	1656
2.83809518814	1654
2.83908104897	1655
2.83936619759	1655
2.84014010429	1655
2.84097909927	1655
2.84161901474	1654
2.84232616425	1653
2.84309005737	1652
2.84398603439	1651
2.84441709518	1650
2.84519910812	1649
2.84589004517	1648
2.84656906128	1647
2.84731912613	1645
2.8482530117	1644
2.84859204292	1642
2.84934520721	1642
2.85032010078	1643
2.85071706772	1641
2.85144805908	1639
2.85218906403	1641
2.85286211967	1640
2.85361504555	1640
2.85457921028	1641
2.85495710373	1642
2.85601711273	1643
2.85631418228	1645
2.8570830822	1645
2.85778307915	1646
2.85883116722	1648
2.85909318924	1650
2.85991621017	1649
2.86064505577	1648
2.86158323288	1648
2.86194300652	1647
2.86274218559	1647
2.86344718933	1648
2.86419320107	1647
2.86484718323	1647
2.86579108238	1646
2.86616802216	1646
2.86693716049	1645
2.86788010597	1643
2.86827707291	1642
2.86900806427	1638
2.86970210075	1635
2.87041115761	1631
2.87140917778	1627
2.87248206139	1622
2.87261915207	1617
2.87350106239	1614
2.87397003174	1611
2.87464904785	1611
2.87541007996	1610
2.87630009651	1609
2.87671113014	1608
2.87744808197	1607
2.87814211845	1603
2.87883210182	1594
2.87979316711	1583
2.88015222549	1568
2.88100123405	1550
2.88167119026	1526
2.88243103027	1501
2.88310003281	1474
2.88403701782	1444
2.884360075	1414
2.8851890564	1379
2.88609814644	1346
2.8865480423	1312
2.88722801208	1278
2.88800311089	1242
2.88902306557	1209
2.88932108879	1175
2.89008903503	1143
2.89078116417	1111
2.89143300056	1076
2.89252519608	1046
2.89356422424	1013
2.89375400543	986
2.89417099953	965
2.89514923096	948
2.89526605606	935
2.89639115334	925
2.89649200439	919
2.89760708809	916
2.89770722389	916
2.8988301754	917
2.89893102646	919
2.90007615089	924
2.90020418167	931
2.90123605728	942
2.90133619308	952
2.90246415138	962
2.90256500244	973
2.90368318558	983
2.90378403664	992
2.90500307083	996
2.90510320663	997
2.90614509583	996
2.90624904633	989
2.90739107132	977
2.90749621391	962
2.90857720375	940
2.90867900848	914
2.90979814529	884
2.90990018845	853
2.91102600098	819
2.9111301899	787
2.91224813461	761
2.91235208511	738
2.91347718239	721
2.91366100311	712
2.91469120979	708
2.91486120224	713
2.91594004631	728
2.91604304314	754
2.91716909409	791
2.91727113724	843
2.91838812828	902
2.91849207878	972
2.91958117485	1054
2.91996216774	1153
2.92092609406	1261
2.9220161438	1373
2.92212510109	1489
2.92303705215	1608
2.92329621315	1737
2.92439222336	1867
2.92481923103	2004
2.92559409142	2141
2.9262881279	2267
2.9272081852	2379
2.92763900757	2476
2.92862200737	2547
2.92958116531	2592
2.92971301079	2615
2.93064808846	2610
2.93110513687	2581
2.93184900284	2532
2.93255710602	2466
2.93325209618	2387
2.93395900726	2297
2.93469500542	2199
2.93541622162	2098
2.93611717224	1996
2.93702602386	1901
2.93735218048	1811
2.93851017952	1729
2.93879818916	1658
2.93949103355	1601
2.94028902054	1556
2.94105410576	1523
2.94196510315	1503
2.94311213493	1494
2.94323301315	1493
2.94377923012	1498
2.9444642067	1513
2.94543004036	1531
2.94583702087	1551
2.94656705856	1573
2.94728207588	1596
2.94804906845	1619
2.94874405861	1638
2.94969105721	1656
2.95008420944	1671
2.95083403587	1682
2.95174121857	1689
2.95217108727	1694
2.95299005508	1693
2.95386600494	1692
2.9543261528	1690
2.95534420013	1682
2.95563912392	1676
2.95644116402	1668
2.95714712143	1658
2.95775222778	1649
2.95843720436	1641
2.95917510986	1632
2.96004605293	1623
2.96082615852	1616
2.96133804321	1613
2.96227502823	1607
2.96266508102	1605
2.96372818947	1602
2.96402621269	1603
2.96485519409	1604
2.9655611515	1607
2.96657013893	1608
2.9669342041	1610
2.96769499779	1613
2.96860909462	1614
2.96895813942	1617
2.97003602982	1618
2.97039318085	1620
2.97114014626	1622
2.97210502625	1623
2.97248220444	1625
2.97321105003	1625
2.97413921356	1628
2.9745850563	1628
2.97559499741	1627
2.97600412369	1628
2.97677612305	1626
2.977435112	1625
2.9784040451	1623
2.97947406769	1621
2.97966718674	1620
2.9802570343	1618
2.98123121262	1616
2.98160910606	1615
2.98235011101	1612
2.98308110237	1614
2.98402905464	1611
2.98514413834	1609
2.98525500298	1609
2.98612999916	1608
2.98653006554	1607
2.9875421524	1606
2.98794603348	1606
2.98867917061	1605
2.98937702179	1605
2.99009108543	1605
2.99099612236	1605
2.99132108688	1606
2.99217820168	1606
2.99297118187	1605
2.9935362339	1604
2.99428105354	1603
2.99505114555	1602
2.99576210976	1603
2.99671006203	1602
2.99782013893	1602
2.99792909622	1602
2.99881720543	1602
2.99997711182	1602
3.00008702278	1602
3.00088715553	1600
3.00123715401	1598
3.00205922127	1597
3.00303220749	1596
3.00322914124	1595
3.00434803963	1594
3.00477218628	1593
3.00557518005	1592
3.00651216507	1593
3.00764012337	1592
3.0077521801	1592
3.00838208199	1592
3.00931406021	1592
3.00968813896	1588
3.01044011116	1586
3.01113605499	1585
3.0118701458	1584
3.01257920265	1581
3.01326012611	1580
3.01421904564	1577
3.01464319229	1576
3.01568412781	1575
3.01599502563	1573
3.01679301262	1572
3.01749300957	1571
3.01817917824	1571
3.01912713051	1571
3.01952815056	1570
3.02051615715	1569
3.02093410492	1569
3.02163505554	1567
3.02238106728	1567
3.02340912819	1567
3.02372813225	1567
3.0247130394	1566
3.02513217926	1566
3.02590107918	1564
3.02664518356	1563
3.0273900032	1561
3.02800416946	1559
3.02869415283	1558
3.02965402603	1555
3.03007221222	1554
3.03083610535	1552
3.03145313263	1550
3.03245520592	1548
3.03293609619	1547
3.03363108635	1546
3.03429818153	1544
3.03538417816	1541
3.03558421135	1538
3.03642916679	1536
3.03712916374	1533
3.03780722618	1529
3.03858113289	1528
3.03923511505	1528
3.0399620533	1525
3.04064321518	1524
3.04134511948	1524
3.04232120514	1524
3.04268622398	1523
3.04344320297	1521
3.04417109489	1519
3.04490303993	1518
3.04560518265	1516
3.04654502869	1515
3.04765319824	1513
3.04777622223	1510
3.04839706421	1507
3.04909110069	1505
3.0501101017	1505
3.05040001869	1501
3.05147123337	1499
3.05188512802	1495
3.05287718773	1492
3.05326104164	1490
3.05395412445	1489
3.05505418777	1487
3.05517315865	1486
3.05636000633	1485
3.0567522049	1483
3.05750918388	1484
3.05820608139	1486
3.05915617943	1483
3.05949115753	1481
3.06055521965	1480
3.06096100807	1479
3.06173205376	1477
3.06267118454	1474
3.06305909157	1471
3.06379318237	1470
3.06449317932	1469
3.0654361248	1466
3.06594800949	1465
3.06660914421	1465
3.06733107567	1463
3.06798315048	1459
3.06898403168	1458
3.06932806969	1455
3.07005810738	1453
3.07086706161	1450
3.07151222229	1448
3.0725300312	1444
3.07299113274	1439
3.07368206978	1437
3.0746281147	1434
3.07492017746	1432
3.07577419281	1429
3.07647800446	1426
3.07716822624	1423
3.07812213898	1421
3.07850813866	1419
3.07929515839	1417
3.08025121689	1414
3.08065009117	1412
3.08142113686	1411
3.08236813545	1412
3.08276319504	1411
3.08376908302	1411
3.08489704132	1410
3.08500909805	1410
3.08563303947	1410
3.08631515503	1409
3.08707618713	1408
3.08767104149	1408
3.0883769989	1406
3.0890622139	1407
3.08979010582	1407
3.09048008919	1406
3.09147000313	1407
3.09255504608	1406
3.09266614914	1405
3.0932970047	1404
3.09425616264	1401
3.09465122223	1400
3.09564614296	1398
3.09604120255	1395
3.09704303741	1394
3.09737610817	1393
3.09846711159	1392
3.09876608849	1391
3.09953403473	1392
3.10037112236	1393
3.10131621361	1393
3.10242819786	1393
3.10254001617	1395
3.10342621803	1398
3.10379099846	1398
3.10483002663	1401
3.1052031517	1402
3.10590910912	1403
3.10668611526	1405
3.10752606392	1408
3.10796117783	1411
3.10898900032	1413
3.109375	1414
3.11014509201	1415
3.11087203026	1417
3.11156010628	1417
3.11228919029	1417
3.11304306984	1418
3.11394000053	1418
3.11435222626	1419
3.11509013176	1419
3.11579608917	1420
3.1165201664	1420
3.11743712425	1420
3.11784410477	1420
3.11853408813	1419
3.11953401566	1419
3.1199991703	1419
3.1206381321	1420
3.12142515182	1421
3.1221101284	1420
3.12275409698	1422
3.12347102165	1425
3.12418723106	1427
3.12488412857	1430
3.12558507919	1434
3.12626814842	1437
3.12726020813	1441
3.12762117386	1447
3.12840914726	1451
3.12906813622	1458
3.13004016876	1463
3.13116121292	1472
3.13132500648	1479
3.13222312927	1485
3.13256216049	1493
3.13335609436	1502
3.13427400589	1509
3.13458609581	1513
3.13565015793	1521
3.13605618477	1525
3.13674116135	1531
3.13748121262	1537
3.13848209381	1542
3.13898420334	1547
3.13964009285	1553
3.14039516449	1556
3.14127111435	1562
3.14162421227	1567
3.14267420769	1571
3.14312911034	1575
3.14409899712	1579
3.14453601837	1583
3.1452331543	1587
3.146007061	1592
3.14666414261	1596
3.14737415314	1603
3.1480281353	1609
3.14901614189	1614
3.14942002296	1621
3.15015411377	1626
3.15084314346	1633
3.15149211884	1638
3.15250205994	1644
3.15296316147	1649
3.15373802185	1656
3.15457320213	1662
3.1550180912	1666
3.15605306625	1671
3.15641522408	1678
3.15723109245	1680
3.15785813332	1686
3.1588101387	1689
3.15997409821	1692
3.16008520126	1695
3.1606760025	1698
3.1616590023	1699
3.16201901436	1702
3.16281914711	1705
3.16371417046	1706
3.16416120529	1710
3.16491723061	1713
3.16561102867	1717
3.16655921936	1719
3.1669781208	1723
3.16762018204	1727
3.16836309433	1731
3.169080019	1734
3.16986823082	1737
3.17076301575	1741
3.17117500305	1744
3.17190909386	1748
3.17285919189	1752
3.17319321632	1756
3.17406105995	1759
3.17476606369	1763
3.17544603348	1766
3.17613220215	1769
3.17682003975	1770
3.17781019211	1773
3.17819619179	1773
3.17918920517	1776
3.18029022217	1776
3.18040323257	1777
3.18102812767	1777
3.18200707436	1777
3.18240523338	1778
3.18341708183	1778
3.18383622169	1777
3.1848320961	1776
3.1852350235	1776
3.18603515625	1777
3.1868481636	1775
3.18728518486	1774
3.1881070137	1776
3.18873500824	1776
3.1896750927	1776
3.19012117386	1777
3.19088101387	1779
3.1916282177	1781
3.19227600098	1781
3.19309616089	1781
3.1937122345	1781
3.19466304779	1779
3.19508004189	1776
3.19606614113	1777
3.19646811485	1774
3.19720816612	1771
3.197920084	1770
3.19863009453	1768
3.19954299927	1766
3.20005011559	1765
3.2010550499	1764
3.20139312744	1763
3.20214509964	1761
3.20281815529	1759
3.20346522331	1758
3.20424509048	1758
3.20519804955	1758
3.20559120178	1758
3.20632600784	1762
3.20706605911	1762
3.20776700974	1763
3.20842599869	1765
3.2091550827	1766
3.20985817909	1767
3.21053910255	1768
3.21125721931	1770
3.21204400063	1767
3.21292304993	1767
3.21329712868	1767
3.21406722069	1767
3.21477413177	1765
3.2154610157	1765
3.21617817879	1766
3.21677803993	1765
3.21754407883	1763
3.2182290554	1762
3.21905112267	1761
3.2196700573	1760
3.22032213211	1760
3.22109222412	1760
3.22169804573	1759
3.22275304794	1760
3.22306513786	1760
3.22386717796	1760
3.22457718849	1762
3.22553110123	1762
3.22600221634	1763
3.22666716576	1763
3.22739315033	1763
3.2280831337	1763
3.22908210754	1764
3.22937321663	1763
3.23043513298	1764
3.23083901405	1764
3.23156499863	1764
3.23231005669	1764
3.23325514793	1765
3.23365402222	1763
3.23440003395	1762
3.23509812355	1762
3.23580121994	1761
3.23675918579	1760
3.23702216148	1762
3.23815202713	1761
3.2385802269	1761
3.23960614204	1761
3.23994016647	1761
3.24099707603	1761
3.24133300781	1762
3.24206805229	1761
3.24312901497	1760
3.24337816238	1759
3.24424815178	1758
3.24496412277	1757
3.24590611458	1757
3.24621510506	1757
3.24729609489	1755
3.24770402908	1754
3.24844813347	1754
3.2494161129	1756
3.24976205826	1757
3.25053501129	1756
3.25122714043	1757
3.2521572113	1757
3.25330519676	1756
3.2534160614	1756
3.25400710106	1755
3.25475502014	1754
3.2557091713	1755
3.25616121292	1754
3.25682711601	1753
3.25752401352	1753
3.25849819183	1752
3.2596180439	1750
3.25973105431	1749
3.26061606407	1747
3.26100707054	1745
3.26181817055	1743
3.26274609566	1741
3.26311612129	1741
3.264149189	1737
3.26449513435	1737
3.26530003548	1736
3.26625323296	1735
3.2674062252	1735
3.26756310463	1735
3.2683532238	1732
3.26872301102	1732
3.26953005791	1729
3.27028918266	1731
3.27090406418	1732
3.27188515663	1733
3.27302217484	1735
3.27313423157	1733
3.27374005318	1735
3.27467823029	1735
3.27502512932	1735
3.27610111237	1737
3.27644610405	1737
3.27749300003	1737
3.27785205841	1738
3.27890205383	1737
3.28002810478	1737
3.28013920784	1738
3.28072214127	1736
3.28165102005	1736
3.28203201294	1734
3.28277206421	1734
3.28377509117	1734
3.28420615196	1732
3.28521513939	1730
3.28554010391	1728
3.2862842083	1729
3.28728508949	1725
3.28843617439	1724
3.28854823112	1722
3.28942513466	1721
3.28980708122	1720
3.29054021835	1719
3.2913081646	1718
3.29196310043	1716
3.29263520241	1714
3.29333519936	1711
3.29399514198	1710
3.29516506195	1706
3.29529213905	1706
3.29619312286	1706
3.29688811302	1704
3.29785704613	1706
3.29824614525	1705
3.29905700684	1706
3.29995107651	1706
3.3003590107	1709
3.30109715462	1710
3.30204820633	1710
3.30246806145	1712
3.30317902565	1714
3.30392003059	1715
3.30461621284	1717
3.30521512032	1717
3.30604505539	1719
3.30671620369	1720
3.30764102936	1720
3.30808210373	1721
3.30906820297	1723
3.30949807167	1724
3.31045603752	1723
3.31085801125	1722
3.31156015396	1721
3.31255912781	1719
3.31293916702	1718
3.3137011528	1717
3.31465101242	1717
3.31509017944	1716
3.31601405144	1715
3.31648206711	1713
3.31722807884	1713
3.31792712212	1712
3.31864309311	1710
3.31956219673	1707
3.31998705864	1705
3.32074904442	1705
3.32168412209	1704
3.32208800316	1703
3.32311105728	1703
3.32348418236	1703
3.3244562149	1703
3.32493805885	1703
3.32565402985	1702
3.32660508156	1703
3.32700800896	1702
3.32770609856	1703
3.32845211029	1703
3.32940220833	1704
3.32982206345	1705
3.33055019379	1707
3.33127617836	1709
3.33204102516	1711
3.33293223381	1713
3.33333110809	1715
3.33408713341	1716
3.3350250721	1718
3.33533906937	1718
3.33618712425	1719
3.33687400818	1720
3.33754706383	1721
3.33828806877	1722
3.33925318718	1723
3.33966016769	1724
3.34038805962	1725
3.34108710289	1726
3.34204912186	1727
3.34245109558	1728
3.34321904182	1728
3.34387111664	1729
3.3445930481	1729
3.34526205063	1729
3.3460252285	1730
3.34685707092	1730
3.34738016129	1729
3.34809708595	1729
3.34882211685	1729
3.34950017929	1729
3.35048723221	1728
3.35088801384	1726
3.35160923004	1723
3.35258316994	1722
3.3530061245	1722
3.35372710228	1721
3.35443115234	1721
3.35538506508	1722
3.35577511787	1723
3.35655212402	1723
3.3572640419	1725
3.35814809799	1725
3.35862612724	1725
3.35956907272	1725
3.36074209213	1726
3.36085319519	1725
3.36147809029	1725
3.36217617989	1725
3.36288022995	1724
3.36381912231	1723
3.36422610283	1723
3.36523222923	1723
3.36563420296	1721
3.36639118195	1719
3.36735701561	1718
3.36844420433	1716
3.36855721474	1714
3.36917710304	1712
3.37015223503	1711
3.37056517601	1710
3.37132120132	1709
3.3720471859	1709
3.37268400192	1707
3.37332105637	1706
3.37406301498	1705
3.37498521805	1704
3.37545704842	1702
3.37646412849	1700
3.37680315971	1697
3.37760019302	1692
3.37830209732	1688
3.37905621529	1684
3.38006019592	1680
3.38036322594	1675
3.38137316704	1672
3.38168406487	1668
3.38251900673	1665
3.38316917419	1666
3.38387513161	1663
3.38456821442	1660
3.38555002213	1657
3.38594818115	1655
3.3866481781	1655
3.38739013672	1654
3.38835501671	1653
3.3887720108	1652
3.38949918747	1653
3.39017915726	1654
3.3908970356	1656
3.39154911041	1656
3.39235520363	1657
3.39324712753	1659
3.39366316795	1658
3.39445519447	1659
3.39514613152	1662
3.39611506462	1663
3.39652919769	1665
3.39753222466	1667
3.39799809456	1668
3.3986492157	1670
3.39939522743	1673
3.40014505386	1674
3.4007730484	1673
3.4014840126	1674
3.4021821022	1674
3.4031560421	1672
3.40414905548	1672
3.40426206589	1670
3.4049911499	1670
3.40589904785	1669
3.40701818466	1668
3.40713214874	1667
3.40775322914	1668
3.40870308876	1666
3.40911602974	1665
3.40985107422	1661
3.41081309319	1661
3.41121220589	1658
3.4120080471	1657
3.4129011631	1656
3.41331410408	1654
3.41405415535	1653
3.41475605965	1653
3.41546106339	1653
3.41618609428	1652
3.417137146	1652
3.41753315926	1653
3.41827321053	1652
3.41925406456	1651
3.41964316368	1652
3.42036318779	1651
3.42131614685	1653
3.42247819901	1652
3.42262601852	1652
3.42345118523	1653
3.42378902435	1654
3.42457509041	1655
3.42525720596	1654
3.42627811432	1654
3.42661309242	1654
3.42741918564	1652
3.42813110352	1649
3.42873001099	1647
3.4297811985	1644
3.43008208275	1643
3.43090200424	1639
3.43149805069	1636
3.432254076	1635
3.43320202827	1631
3.43361616135	1629
3.43434214592	1628
3.43509602547	1625
3.43611502647	1622
3.43645811081	1622
3.43720412254	1622
3.43793821335	1622
3.43888401985	1623
3.44004201889	1622
3.44019007683	1622
3.44100809097	1623
3.44131422043	1624
3.44207310677	1623
3.44321322441	1624
3.44337105751	1624
3.44455218315	1622
3.44500207901	1623
3.4456782341	1624
3.44636702538	1623
3.44708514214	1622
3.44777607918	1624
3.44848418236	1624
3.44920110703	1625
3.44989609718	1627
3.45056819916	1626
3.4513092041	1627
3.45227217674	1625
3.4534611702	1623
3.45356917381	1623
3.4540541172	1619
3.4547791481	1617
3.45573019981	1612
3.45620107651	1608
3.45716905594	1605
3.45829606056	1602
3.45840716362	1600
3.45928907394	1598
3.46038508415	1597
3.46049714088	1595
3.46111822128	1591
3.46208405495	1584
3.46247601509	1576
3.46328020096	1564
3.46392822266	1547
3.46465206146	1526
3.46558213234	1503
3.46590018272	1478
3.46664404869	1448
3.46741700172	1415
3.46840214729	1383
3.46879410744	1347
3.46979403496	1311
3.47019219398	1275
3.47094202042	1238
3.4715590477	1201
3.47232508659	1163
3.47332501411	1125
3.47365808487	1086
3.47446012497	1049
3.47518205643	1013
3.47604417801	981
3.47630119324	956
3.47747015953	934
3.47757101059	916
3.47863507271	904
3.47873520851	895
3.47986102104	891
3.47996115685	890
3.48107719421	893
3.48117804527	899
3.48229217529	908
3.48239302635	919
3.48348116875	934
3.48358201981	953
3.48471808434	972
3.48481822014	994
3.48602104187	1016
3.48612999916	1046
3.48705005646	1072
3.48804521561	1095
3.48837709427	1112
3.48941111565	1121
3.48975801468	1124
3.49054908752	1118
3.49144911766	1104
3.49190020561	1082
3.49266815186	1054
3.49354314804	1026
3.49391722679	992
3.49496507645	964
3.49507117271	938
3.49615907669	914
3.49632000923	892
3.49742913246	876
3.49757599831	865
3.49871110916	862
3.4988732338	866
3.49989318848	880
3.50004220009	903
3.50121307373	932
3.50136518478	971
3.50227022171	1016
3.50246620178	1080
3.5033121109	1150
3.50432920456	1226
3.50467920303	1308
3.50547599792	1397
3.50621604919	1487
3.50714302063	1583
3.50752210617	1685
3.50830316544	1797
3.50903701782	1915
3.50968718529	2038
3.51066803932	2153
3.51105308533	2261
3.51181101799	2351
3.5127530098	2425
3.51314401627	2476
3.5138862133	2506
3.51484322548	2513
3.51522302628	2497
3.51603913307	2461
3.5170340538	2410
3.51808214188	2343
3.51820611954	2264
3.51879000664	2175
3.51975512505	2083
3.52017211914	1989
3.52095103264	1895
3.52162504196	1809
3.52257204056	1727
3.52301716805	1654
3.52378416061	1590
3.52470612526	1541
3.52580213547	1501
3.52592420578	1468
3.5265622139	1448
3.52751302719	1436
3.52866220474	1430
3.5287861824	1433
3.52963209152	1441
3.53001904488	1452
3.53070020676	1467
3.53147220612	1488
3.53218102455	1507
3.53286004066	1526
3.53383016586	1547
3.53422522545	1566
3.53527617455	1582
3.5363650322	1596
3.53648805618	1610
3.53731107712	1620
3.53846216202	1628
3.53858423233	1633
3.53918719292	1636
3.53988718987	1635
3.54052805901	1634
3.54154801369	1633
3.54198622704	1627
3.54267120361	1622
3.5434820652	1615
3.5440890789	1609
3.54508209229	1600
3.54546117783	1593
3.54621100426	1587
3.54693722725	1581
3.54763007164	1575
3.54832720757	1571
3.54905509949	1568
3.54994821548	1566
3.55024814606	1565
3.55111908913	1565
3.55182313919	1562
3.55278515816	1563
3.55318212509	1563
3.55421710014	1563
3.55530810356	1563
3.55543518066	1563
3.55602622032	1565
3.55674910545	1568
3.55745816231	1568
3.55814599991	1571
3.55911111832	1572
3.55934309959	1572
3.56019210815	1572
3.5609061718	1573
3.56160211563	1573
3.56229519844	1571
3.56335902214	1572
3.56356215477	1571
3.56439614296	1571
3.56517720222	1569
3.56587100029	1570
3.56683707237	1567
3.56721901894	1566
3.56797409058	1564
3.56868815422	1561
3.56938004494	1560
3.57002520561	1559
3.57102108002	1557
3.57127714157	1555
3.57218122482	1555
3.57315802574	1555
3.57417201996	1555
3.57427811623	1556
3.57500815392	1558
3.57569909096	1558
3.57640910149	1558
3.57712507248	1558
3.57777810097	1560
3.57848215103	1559
3.57922506332	1558
3.5799241066	1558
3.5808660984	1559
3.5820171833	1558
3.58214116096	1557
3.58269906044	1558
3.58364605904	1556
3.58408021927	1554
3.584826231	1554
3.58553218842	1551
3.58623313904	1550
3.58690619469	1548
3.58754301071	1547
3.58857822418	1544
3.5889441967	1545
3.59006810188	1543
3.5901901722	1543
3.591381073	1544
3.59243702888	1544
3.59256410599	1544
3.59318518639	1543
3.59386014938	1542
3.59487199783	1540
3.5952911377	1540
3.59600019455	1539
3.59670209885	1537
3.59765505791	1535
3.59805011749	1534
3.59902620316	1533
3.60016703606	1532
3.60029315948	1530
3.60092616081	1529
3.60160923004	1528
3.60232615471	1528
3.60302209854	1526
3.60400700569	1526
3.60434913635	1525
3.60512304306	1526
3.60581612587	1526
3.60652804375	1526
3.60749602318	1526
3.60788917542	1527
3.60864400864	1527
3.60933303833	1524
3.61002612114	1523
3.6109161377	1522
3.61135005951	1520
3.61208319664	1517
3.61278700829	1515
3.61348509789	1515
3.61444115639	1513
3.61487722397	1512
3.61562609673	1511
3.61658000946	1508
3.61699914932	1507
3.61773204803	1505
3.61867713928	1504
3.61900615692	1503
3.62004423141	1502
3.62115502357	1502
3.62126922607	1501
3.62219500542	1500
3.62254619598	1499
3.62337017059	1498
3.62424302101	1499
3.62462520599	1499
3.62545323372	1496
3.62613010406	1494
3.62682104111	1491
3.62777709961	1489
3.62819004059	1488
3.62894701958	1486
3.62961912155	1485
3.63056516647	1482
3.63101506233	1481
3.63174009323	1479
3.63266420364	1478
3.63308501244	1476
3.63405704498	1476
3.63518714905	1474
3.63528800011	1474
3.63587021828	1472
3.63691306114	1470
3.63724303246	1470
3.63796019554	1468
3.63868713379	1467
3.6397190094	1465
3.64013600349	1464
3.64112019539	1462
3.64152503014	1459
3.64224910736	1457
3.64320707321	1456
3.64362311363	1452
3.64434599876	1449
3.64506912231	1445
3.646007061	1443
3.64645314217	1440
3.64738512039	1437
3.64851617813	1436
3.64861702919	1434
3.64923119545	1431
3.64993906021	1429
3.65089321136	1425
3.65134310722	1424
3.6520781517	1420
3.65278100967	1418
3.65343308449	1415
3.65417909622	1413
3.6549282074	1411
3.6558470726	1409
3.65691804886	1407
3.65701818466	1405
3.65794420242	1404
3.65834403038	1403
3.65906000137	1401
3.65982913971	1399
3.66054010391	1398
3.66117310524	1396
3.66196012497	1394
3.66261911392	1393
3.66335105896	1391
3.66429209709	1390
3.66464400291	1389
3.66544413567	1388
3.66616106033	1386
3.66684603691	1386
3.66746401787	1384
3.66851902008	1383
3.66963720322	1381
3.66973805428	1381
3.67051005363	1379
3.67103219032	1378
3.67178606987	1378
3.6727180481	1378
3.67313313484	1377
3.67411422729	1377
3.67454504967	1378
3.67526721954	1378
3.67597913742	1377
3.67667913437	1376
3.67730903625	1374
3.67807912827	1374
3.67876505852	1372
3.67973208427	1372
3.68009018898	1370
3.68110322952	1369
3.6814520359	1367
3.68255615234	1367
3.68295812607	1366
3.68369412422	1365
3.68463420868	1364
3.68506121635	1363
3.68588018417	1363
3.68655514717	1361
3.68745207787	1362
3.6886780262	1361
3.68878722191	1361
3.68934321404	1363
3.69005322456	1365
3.69098520279	1366
3.69128918648	1366
3.6921350956	1368
3.69311404228	1368
3.69346618652	1370
3.69420218468	1369
3.69495820999	1370
3.69564008713	1372
3.69644618034	1372
3.69737100601	1375
3.69773817062	1376
3.69842720032	1377
3.69925308228	1380
3.70018315315	1382
3.70053315163	1383
3.70131206512	1384
3.70204114914	1386
3.70266699791	1386
3.70346522331	1389
3.70411014557	1391
3.70507216454	1392
3.70616221428	1396
3.70628714561	1397
3.70694923401	1401
3.7076280117	1404
3.70859313011	1409
3.70899200439	1411
3.71004414558	1413
3.71034622192	1415
3.71112918854	1419
3.71183609962	1421
3.71251511574	1425
3.7134771347	1429
3.71393108368	1432
3.71462106705	1436
3.71536207199	1440
3.71628904343	1446
3.7167160511	1451
3.7174642086	1457
3.71840214729	1460
3.71878004074	1465
3.71951603889	1472
3.72026920319	1478
3.72104310989	1484
3.72194719315	1490
3.72226810455	1496
3.72334504128	1503
3.72371721268	1508
3.72449421883	1514
3.72545409203	1520
3.72584819794	1526
3.72656011581	1531
3.72727608681	1537
3.72820305824	1541
3.72860622406	1546
3.72934103012	1550
3.73006010056	1554
3.73078107834	1559
3.73149800301	1563
3.7321741581	1569
3.73312401772	1573
3.73353409767	1578
3.73452711105	1582
3.73496508598	1585
3.73567509651	1590
3.73642301559	1594
3.73707699776	1599
3.7380361557	1603
3.73845005035	1609
3.73945522308	1612
3.73982620239	1616
3.74059319496	1619
3.74128603935	1623
3.74223709106	1628
3.74265503883	1631
3.74364519119	1633
3.74471020699	1637
3.74483799934	1637
3.74550819397	1644
3.74625205994	1645
3.74698400497	1647
3.74764704704	1651
3.74859213829	1653
3.74898815155	1656
3.74976015091	1659
3.75046610832	1661
3.75144314766	1664
3.75176310539	1667
3.75258111954	1670
3.75326704979	1670
3.75421619415	1673
3.75534105301	1675
3.75546717644	1678
3.75609207153	1680
3.75684499741	1682
3.75744605064	1686
3.75820016861	1688
3.7589070797	1690
3.75963711739	1692
3.76029515266	1694
3.76126909256	1694
3.76235413551	1695
3.76247620583	1694
3.76312422752	1694
3.76406216621	1695
3.76518917084	1694
3.7653131485	1695
3.76591515541	1694
3.7666041851	1695
3.7673470974	1696
3.76806712151	1697
3.76898908615	1696
3.76940107346	1697
3.77012610435	1697
3.77081513405	1697
3.77178001404	1697
3.7721850872	1698
3.77289819717	1700
3.77362203598	1701
3.77427411079	1703
3.7752571106	1704
3.77564001083	1703
3.77669501305	1704
3.77708721161	1704
3.77806711197	1703
3.77849316597	1703
3.77949714661	1702
3.77992010117	1702
3.78066110611	1701
3.78161907196	1700
3.78200411797	1700
3.78276610374	1700
3.78348302841	1699
3.78441309929	1699
3.7848110199	1697
3.78557705879	1696
3.78625822067	1695
3.78705906868	1694
3.78794717789	1694
3.78831219673	1693
3.78934621811	1693
3.78977012634	1693
3.7904510498	1693
3.79140615463	1694
3.79185009003	1694
3.79260611534	1694
3.79326820374	1692
3.79406404495	1691
3.79474401474	1691
3.79535508156	1690
3.79602718353	1689
3.79697203636	1688
3.79808521271	1687
3.79820513725	1687
3.79899716377	1685
3.7993991375	1685
3.80048322678	1683
3.80158805847	1683
3.80170702934	1682
3.8023211956	1679
3.80302119255	1679
3.80375504494	1680
3.80473804474	1679
3.80513310432	1680
3.80597901344	1681
3.80662918091	1682
3.80726623535	1683
3.80805420876	1685
3.80871915817	1687
3.80943202972	1687
3.81040406227	1688
3.81149506569	1688
3.81162023544	1688
3.81222319603	1688
3.81320309639	1687
3.81360006332	1687
3.8146212101	1685
3.81499314308	1684
3.81602907181	1681
3.81623506546	1681
3.8173251152	1680
3.81778001785	1677
3.81838607788	1676
3.81919717789	1673
3.82015109062	1671
3.82064509392	1669
3.82138109207	1667
3.82232117653	1666
3.82272720337	1667
3.82377815247	1665
3.823980093	1664
3.82488512993	1664
3.8255751133	1665
3.82654500008	1663
3.82702708244	1662
3.8279402256	1661
3.828343153	1660
3.82909011841	1660
3.82977700233	1660
3.83048915863	1660
3.83141708374	1661
3.83185911179	1662
3.8326280117	1662
3.83348703384	1664
3.83392214775	1664
3.83460307121	1663
3.83529400826	1662
3.83623600006	1662
3.83668112755	1660
3.83750200272	1658
3.83847522736	1659
3.8388531208	1657
3.83946609497	1656
3.84028315544	1658
3.84104800224	1657
3.84171009064	1657
3.8423781395	1657
3.8433470726	1657
3.84364104271	1656
3.84440112114	1656
3.84516310692	1656
3.84582519531	1655
3.84664607048	1655
3.84732103348	1655
3.84807014465	1654
3.84906220436	1653
3.84918904305	1652
3.85013723373	1651
3.85105204582	1651
3.85133504868	1647
3.85225701332	1646
3.85321903229	1646
3.85361123085	1645
3.85462212563	1643
3.85497522354	1643
3.85574316978	1643
3.85642504692	1643
3.85712504387	1646
3.85786604881	1647
3.85854005814	1648
3.8592312336	1648
3.86014103889	1648
3.860476017	1647
3.86163210869	1646
3.86203312874	1646
3.86301803589	1645
3.86328005791	1645
3.86410403252	1645
3.86506605148	1645
3.86551904678	1644
3.86627411842	1644
3.86705207825	1643
3.86796617508	1641
3.8683681488	1641
3.86909413338	1639
3.8698091507	1637
3.87049913406	1637
3.87148523331	1636
3.87179803848	1634
3.87261509895	1634
3.87355804443	1633
3.87398910522	1632
3.87469005585	1634
3.87535905838	1633
3.87608504295	1631
3.8767080307	1632
3.87774419785	1630
3.87815403938	1630
3.87892508507	1628
3.87953615189	1628
3.88050723076	1627
3.8816151619	1627
3.88171601295	1628
3.88269519806	1629
3.88293814659	1631
3.88388204575	1630
3.88455820084	1632
3.88545203209	1631
3.88581109047	1630
3.88666009903	1630
3.88731002808	1630
3.88800120354	1630
3.88900208473	1631
3.88931703568	1632
3.89040803909	1632
3.89080715179	1634
3.89154410362	1635
3.89253520966	1635
3.8928771019	1636
3.89383506775	1635
3.89426112175	1636
3.89505815506	1635
3.89576721191	1632
3.89670109749	1632
3.8970811367	1632
3.89810705185	1629
3.89849305153	1629
3.89945602417	1628
3.89995002747	1627
3.9006690979	1627
3.90141201019	1625
3.90234613419	1625
3.90275716782	1625
3.90366721153	1624
3.90415000916	1625
3.90516901016	1624
3.9062640667	1624
3.90637421608	1623
3.9070520401	1623
3.90767002106	1623
3.90841507912	1625
3.90911722183	1626
3.90979814529	1625
3.91052007675	1624
3.91121721268	1625
3.91191411018	1625
3.91261816025	1625
3.91356921196	1626
3.91396212578	1625
3.91499900818	1626
3.91523003578	1626
3.91611504555	1627
3.91710519791	1628
3.91741013527	1628
3.91820502281	1627
3.91893720627	1629
3.91989707947	1629
3.92031502724	1629
3.92098021507	1629
3.92171502113	1630
3.92243218422	1630
3.92312502861	1631
3.92408800125	1632
3.92450022697	1632
3.92519021034	1633
3.9261841774	1632
3.92658901215	1631
3.92728614807	1632
3.92800521851	1632
3.92875409126	1632
3.92946100235	1631
3.93013620377	1630
3.93085217476	1630
3.93175911903	1629
3.93214821815	1629
3.93296122551	1630
3.93353915215	1630
3.93453621864	1629
3.93494009972	1630
3.93571209908	1631
3.93648505211	1632
3.9371881485	1633
3.93787622452	1635
3.93888521194	1638
3.93920707703	1640
3.93995809555	1644
3.94060111046	1647
3.94149708748	1648
3.94268703461	1651
3.94279313087	1654
3.94346809387	1654
3.94411921501	1654
3.94482207298	1655
3.94550418854	1654
3.94618320465	1653
3.94697022438	1654
3.94769716263	1652
3.9484000206	1651
3.9493470192	1650
3.94974422455	1649
3.95074415207	1648
3.95115113258	1645
3.95214915276	1643
3.95255422592	1642
3.95325613022	1640
3.95399522781	1640
3.95471405983	1638
3.95567321777	1638
3.95675802231	1637
3.95686912537	1637
3.95749616623	1639
3.9584300518	1638
3.95879220963	1638
3.95988917351	1638
3.96018719673	1637
3.96104216576	1637
3.96203923225	1638
3.96233010292	1638
3.96341609955	1640
3.96378517151	1640
3.96480107307	1642
3.96520113945	1643
3.96620106697	1645
3.96733808517	1647
3.96752405167	1645
3.9683201313	1645
3.96868610382	1644
3.96964502335	1643
3.97006320953	1643
3.97090411186	1641
3.97176909447	1640
3.97208404541	1639
3.97296023369	1637
3.97391104698	1636
3.97426199913	1632
3.97504401207	1630
3.97571611404	1627
3.97653508186	1621
3.97753310204	1616
3.97769212723	1611
3.97857403755	1607
3.9794690609	1602
3.97986507416	1598
3.98069810867	1594
3.98164701462	1590
3.98194408417	1588
3.98271512985	1587
3.98350811005	1587
3.98420906067	1585
3.98489713669	1585
3.98562002182	1585
3.98622012138	1585
3.9871160984	1585
3.98763608932	1586
3.98832702637	1586
3.98903203011	1588
3.98973917961	1588
3.99052405357	1590
3.99149012566	1593
3.99179315567	1594
3.99259901047	1595
3.99365305901	1597
3.99398207664	1599
3.99498820305	1598
3.99528121948	1598
3.99614405632	1598
3.99685502052	1599
3.99780011177	1598
3.99887919426	1599
3.99899220467	1600
3.99960422516	1600
4.00056409836	1601
4.00093603134	1600
4.0017220974	1599
4.002420187	1599
4.00316500664	1598
4.00408101082	1599
4.00444102287	1600
4.00527000427	1600
4.00624418259	1600
4.00738310814	1600
4.00750613213	1602
4.00833010674	1603
4.00870704651	1604
4.00947403908	1603
4.01044917107	1604
4.01080918312	1602
4.01159214973	1602
4.01230406761	1601
4.01307702065	1600
4.0136961937	1601
4.01439499855	1600
4.01509404182	1599
4.0158200264	1598
4.0167620182	1597
4.01711702347	1597
4.01787805557	1595
4.01881122589	1594
