0.0003685951232910156	1641
0.0007584095001220703	1631
0.0010020732879638672	1710
0.0012102127075195312	1678
0.001436471939086914	1612
0.0016438961029052734	1675
0.0018496513366699219	1692
0.002057790756225586	1614
0.002262115478515625	1643
0.0024652481079101562	1697
0.0026655197143554688	1625
0.002868175506591797	1611
0.0030701160430908203	1689
0.0032732486724853516	1654
0.003476381301879883	1595
0.0036797523498535156	1664
0.0038819313049316406	1687
0.004083871841430664	1606
0.004288196563720703	1635
0.0044901371002197266	1690
0.004691362380981445	1616
0.004892110824584961	1603
0.005094289779663086	1676
0.005340576171875	1632
0.005530834197998047	1563
0.0057201385498046875	1624
0.0059108734130859375	1638
0.006102323532104492	1559
0.006293058395385742	1583
0.006484031677246094	1615
0.006675243377685547	1537
0.00686955451965332	1564
0.007063388824462891	1668
0.007257699966430664	1634
0.007478952407836914	1802
0.00927114486694336	1624
0.01433420181274414	1624
0.019298791885375977	1842
0.02445244789123535	1729
0.029495716094970703	1588
0.03447842597961426	1781
0.03944706916809082	1768
0.04448652267456055	1580
0.04951333999633789	1722
0.05446267127990723	1834
0.05950140953063965	1644
0.0645143985748291	1638
0.06953144073486328	1815
0.07454562187194824	1711
0.07946133613586426	1597
0.08447575569152832	1762
0.0894310474395752	1759
0.09444761276245117	1565
0.09939956665039062	1670
0.10436892509460449	1797
0.10939455032348633	1654
0.11441183090209961	1647
0.1194312572479248	1807
0.12450313568115234	1705
0.1294999122619629	1595
0.13462018966674805	1761
0.13969993591308594	1742
0.14482712745666504	1572
0.1497805118560791	1686
0.15483593940734863	1790
0.15990185737609863	1651
0.1649918556213379	1671
0.1700451374053955	1809
0.17499494552612305	1704
0.1799907684326172	1642
0.18496918678283691	1802
0.18994808197021484	1769
0.19489574432373047	1608
0.19982147216796875	1724
0.2048497200012207	1780
0.20991945266723633	1603
0.21494483947753906	1588
0.21998906135559082	1750
0.22496509552001953	1662
0.22994565963745117	1593
0.2349681854248047	1723
0.23994827270507812	1715
0.24500060081481934	1590
0.2500474452972412	1677
0.25507497787475586	1746
0.2601139545440674	1592
0.2650868892669678	1586
0.27002954483032227	1709
0.27501654624938965	1621
0.2799839973449707	1564
0.2849562168121338	1657
0.2899594306945801	1557
0.2949509620666504	1267
0.2999272346496582	1207
0.3050417900085449	1084
0.30999159812927246	888
0.3148915767669678	1047
0.3198201656341553	1325
0.3247983455657959	1340
0.3298006057739258	1618
0.3348565101623535	2255
0.3398571014404297	2659
0.3448519706726074	2090
0.3498215675354004	1564
0.3549075126647949	1525
0.35991907119750977	1464
0.36496877670288086	1466
0.36995601654052734	1562
0.37499094009399414	1500
0.37993931770324707	1436
0.3849320411682129	1533
0.38993144035339355	1536
0.3948831558227539	1412
0.3999814987182617	1444
0.40506529808044434	1514
0.40995121002197266	1480
0.41506528854370117	1478
0.42005324363708496	1513
0.42499804496765137	1435
0.43009352684020996	1344
0.4350464344024658	1399
0.4400947093963623	1429
0.4450681209564209	1387
0.45006847381591797	1467
0.45505547523498535	1501
0.4600527286529541	1369
0.4649982452392578	1361
0.4699513912200928	1456
0.4750239849090576	1405
0.4800906181335449	1334
0.4850282669067383	1416
0.4899916648864746	1432
0.4950752258300781	1324
0.5001387596130371	1326
0.5050673484802246	1370
0.5100445747375488	1306
0.5150465965270996	1343
0.5200076103210449	1432
0.5250751972198486	1386
0.5300664901733398	1335
0.53507399559021	1414
0.5400981903076172	1415
0.5450444221496582	1325
0.5500261783599854	1380
0.5550048351287842	1457
0.5600154399871826	1379
0.564988374710083	1368
0.5699548721313477	1469
0.5749504566192627	1429
0.5799133777618408	1387
0.5849120616912842	1489
0.5898849964141846	1545
0.5948209762573242	1506
0.5998120307922363	1583
0.6048822402954102	1662
0.6099936962127686	1589
0.6150290966033936	1598
0.6199548244476318	1716
0.6249306201934814	1672
0.6298842430114746	1604
0.6348817348480225	1675
0.6398806571960449	1682
0.6448817253112793	1614
0.6500208377838135	1670
0.6549897193908691	1720
0.6600279808044434	1635
0.6650288105010986	1609
0.6700363159179688	1687
0.6750047206878662	1653
0.6800980567932129	1592
0.6850733757019043	1648
0.6901147365570068	1654
0.6950991153717041	1567
0.7001161575317383	1620
0.705136775970459	1699
0.7101843357086182	1625
0.7151749134063721	1594
0.7202343940734863	1691
0.7251870632171631	1644
0.7302114963531494	1581
0.7352027893066406	1663
0.7401394844055176	1689
0.745175838470459	1608
0.7501909732818604	1649
0.7551929950714111	1708
0.7601935863494873	1633
0.7651596069335938	1635
0.770150899887085	1718
0.7752211093902588	1675
0.7802379131317139	1627
0.7851850986480713	1703
0.7901852130889893	1698
0.79520583152771	1626
0.8002355098724365	1667
0.8052120208740234	1719
0.8102288246154785	1612
0.8152649402618408	1592
0.8203413486480713	1675
0.8252959251403809	1622
0.8305137157440186	1589
0.8355562686920166	1691
0.8404679298400879	1673
0.8454422950744629	1575
0.8504419326782227	1637
0.8554403781890869	1683
0.860443115234375	1597
0.8654978275299072	1586
0.8704578876495361	1643
0.8754150867462158	1583
0.8804864883422852	1552
0.8854019641876221	1610
0.8904628753662109	1584
0.8955078125	1348
0.9005165100097656	1206
0.9054570198059082	1074
0.9104559421539307	937
0.9153573513031006	1149
0.9203929901123047	1505
0.9254474639892578	1462
0.9305784702301025	1575
0.9356558322906494	2056
0.9406378269195557	2448
0.9456610679626465	2126
0.950681209564209	1655
0.9556899070739746	1503
0.9607012271881104	1431
0.9656076431274414	1490
0.9706783294677734	1571
0.9757225513458252	1478
0.9806785583496094	1429
0.9856793880462646	1537
0.9906339645385742	1509
0.9956369400024414	1414
1.0006046295166016	1504
1.0055532455444336	1538
1.010627269744873	1416
1.0156142711639404	1427
1.0205731391906738	1531
1.0256412029266357	1450
1.0306458473205566	1398
1.0356545448303223	1498
1.040705680847168	1473
1.0456757545471191	1360
1.0506961345672607	1445
1.0557126998901367	1495
1.060692310333252	1387
1.0657005310058594	1405
1.070749282836914	1496
1.075751781463623	1398
1.080777883529663	1333
1.085803747177124	1439
1.0907416343688965	1432
1.0957651138305664	1337
1.1007277965545654	1420
1.105738878250122	1465
1.110745906829834	1358
1.1157472133636475	1370
1.1206731796264648	1463
1.1257026195526123	1389
1.13063383102417	1350
1.1357314586639404	1470
1.140683650970459	1464
1.1457679271697998	1358
1.1507587432861328	1432
1.1557819843292236	1496
1.1607799530029297	1390
1.1657052040100098	1409
1.1706626415252686	1515
1.1757111549377441	1467
1.180678367614746	1452
1.1857962608337402	1572
1.1908447742462158	1554
1.1958134174346924	1484
1.200798749923706	1585
1.2057723999023438	1664
1.210836410522461	1593
1.215791940689087	1635
1.220787525177002	1721
1.2258472442626953	1645
1.2308824062347412	1619
1.235849142074585	1741
1.2408246994018555	1724
1.2458362579345703	1620
1.2508065700531006	1687
1.2558057308197021	1720
1.2608895301818848	1625
1.2658605575561523	1655
1.2708649635314941	1730
1.2758679389953613	1649
1.2807610034942627	1599
1.2857472896575928	1695
1.2908434867858887	1680
1.295837163925171	1596
1.3008549213409424	1666
1.3058679103851318	1698
1.3108253479003906	1597
1.3158228397369385	1620
1.3208072185516357	1715
1.3258049488067627	1639
1.3308115005493164	1585
1.335791826248169	1678
1.3407964706420898	1674
1.345832109451294	1617
1.3508009910583496	1710
1.3558039665222168	1734
1.3608672618865967	1609
1.3657915592193604	1615
1.370896339416504	1707
1.3758544921875	1664
1.380852222442627	1644
1.385939121246338	1738
1.3909869194030762	1722
1.3960790634155273	1642
1.401048183441162	1702
1.4060935974121094	1729
1.4112186431884766	1647
1.4162147045135498	1667
1.421144962310791	1677
1.4261727333068848	1584
1.4311225414276123	1610
1.4361605644226074	1730
1.4411792755126953	1685
1.4462618827819824	1595
1.4512419700622559	1679
1.4563207626342773	1730
1.461198329925537	1641
1.466092586517334	1628
1.4711012840270996	1666
1.4760560989379883	1606
1.4811294078826904	1548
1.486201286315918	1566
1.4911253452301025	1342
1.4960615634918213	1045
1.5010466575622559	935
1.506049394607544	978
1.5109810829162598	1224
1.5159530639648438	1625
1.5209136009216309	1742
1.5259158611297607	1748
1.5309622287750244	2161
1.5359539985656738	2619
1.5409479141235352	2277
1.5459764003753662	1670
1.551025152206421	1579
1.5559206008911133	1662
1.5609407424926758	1549
1.565925121307373	1515
1.5709307193756104	1567
1.5759530067443848	1487
1.580996036529541	1443
1.5860307216644287	1540
1.5910096168518066	1536
1.5959815979003906	1458
1.600921630859375	1502
1.6058320999145508	1522
1.6108596324920654	1411
1.6159074306488037	1427
1.6209022998809814	1509
1.6259315013885498	1431
1.6309309005737305	1396
1.6359302997589111	1497
1.6408116817474365	1483
1.6458539962768555	1398
1.6508917808532715	1449
1.6559550762176514	1476
1.661005973815918	1386
1.6660027503967285	1406
1.671001672744751	1478
1.676016092300415	1404
1.680967092514038	1363
1.6860344409942627	1440
1.6910271644592285	1416
1.6960291862487793	1338
1.7011117935180664	1414
1.7061121463775635	1452
1.7111098766326904	1352
1.7160465717315674	1378
1.7210795879364014	1472
1.7259786128997803	1403
1.7309792041778564	1365
1.7360460758209229	1466
1.7410857677459717	1462
1.74603271484375	1377
1.7510604858398438	1448
1.7561283111572266	1504
1.7611403465270996	1414
1.7661941051483154	1433
1.771130084991455	1526
1.7761516571044922	1476
1.7811548709869385	1458
1.7862098217010498	1581
1.7912065982818604	1594
1.7961959838867188	1533
1.8012206554412842	1627
1.8062353134155273	1688
1.811220645904541	1609
1.8162040710449219	1630
1.8212108612060547	1714
1.8260769844055176	1644
1.8310704231262207	1602
1.8360636234283447	1696
1.8410871028900146	1681
1.846099615097046	1590
1.851161003112793	1656
1.856116771697998	1704
1.8610730171203613	1604
1.8660521507263184	1599
1.8710360527038574	1681
1.876006841659546	1615
1.8811681270599365	1562
1.8861536979675293	1653
1.8912580013275146	1642
1.896275520324707	1554
1.901242733001709	1624
1.90629243850708	1667
1.9114692211151123	1563
1.9165096282958984	1583
1.9215829372406006	1671
1.9264576435089111	1612
1.9313576221466064	1578
1.9364368915557861	1671
1.9415090084075928	1650
1.9464802742004395	1572
1.9514753818511963	1656
1.9565203189849854	1706
1.9614408016204834	1614
1.9664080142974854	1641
1.9714879989624023	1720
1.9764988422393799	1637
1.981527328491211	1599
1.9864535331726074	1694
1.9915058612823486	1647
1.9965636730194092	1533
2.001532793045044	1614
2.006669521331787	1651
2.011687994003296	1560
2.016707420349121	1605
2.02176570892334	1676
2.026843786239624	1572
2.0318853855133057	1550
2.0371336936950684	1658
2.042222023010254	1604
2.04719614982605	1519
2.0522918701171875	1621
2.0573205947875977	1644
2.062352180480957	1526
2.067293643951416	1516
2.072330951690674	1511
2.077421188354492	1245
2.082352876663208	1004
2.087336778640747	893
2.0922555923461914	760
2.097207546234131	857
2.102015972137451	1251
2.107002019882202	1429
2.112022876739502	1607
2.116957902908325	2259
2.1219799518585205	2685
2.1269161701202393	2173
2.1319615840911865	1603
2.1369481086730957	1623
2.141909599304199	1683
2.1468613147735596	1551
2.1519105434417725	1534
2.1569342613220215	1544
2.1620209217071533	1460
2.1670050621032715	1504
2.172093152999878	1578
2.1769518852233887	1471
2.1819074153900146	1443
2.1868937015533447	1561
2.1918632984161377	1519
2.196951389312744	1413
2.201930522918701	1494
2.2068655490875244	1535
2.211836099624634	1425
2.2167556285858154	1438
2.221811532974243	1513
2.2268619537353516	1429
2.2318568229675293	1399
2.236830711364746	1492
2.2418060302734375	1454
2.2468044757843018	1365
2.251927614212036	1429
2.256932020187378	1448
2.2619285583496094	1355
2.2668814659118652	1393
2.271972179412842	1454
2.2770462036132812	1364
2.282041549682617	1344
2.286990165710449	1447
2.291977882385254	1416
2.297001361846924	1336
2.301952600479126	1427
2.3069229125976562	1458
2.311967372894287	1350
2.3169424533843994	1401
2.321937084197998	1500
2.3269269466400146	1430
2.331946849822998	1410
2.336899995803833	1506
2.341895580291748	1474
2.346890926361084	1400
2.3518922328948975	1497
2.356905460357666	1543
2.3619024753570557	1453
2.3668575286865234	1517
2.3718743324279785	1635
2.376884698867798	1576
2.381978988647461	1562
2.3869218826293945	1686
2.3918027877807617	1687
2.3967983722686768	1616
2.401785135269165	1703
2.406686544418335	1753
2.4117982387542725	1660
2.4167819023132324	1687
2.421840190887451	1762
2.4268367290496826	1668
2.431811571121216	1626
2.4367873668670654	1728
2.4418208599090576	1700
2.446890115737915	1604
2.451871395111084	1681
2.45691180229187	1724
2.4619357585906982	1613
2.4669559001922607	1643
2.471977472305298	1726
2.4769718647003174	1642
2.481890916824341	1608
2.4869930744171143	1712
2.492039680480957	1695
2.4970154762268066	1620
2.502098798751831	1702
2.507145881652832	1727
2.5121424198150635	1622
2.5171573162078857	1667
2.5220463275909424	1754
2.5270888805389404	1676
2.532071590423584	1662
2.5370993614196777	1771
2.542029619216919	1740
2.546998977661133	1657
2.5519847869873047	1741
2.557006597518921	1773
2.5621042251586914	1677
2.567045211791992	1711
2.572227954864502	1777
2.577148675918579	1671
2.5821356773376465	1631
2.5870635509490967	1725
2.592050075531006	1700
2.5971240997314453	1630
2.6022233963012695	1719
2.607229232788086	1748
2.6122207641601562	1642
2.6171159744262695	1657
2.622086524963379	1741
2.6272335052490234	1660
2.6322097778320312	1615
2.6372435092926025	1714
2.642193078994751	1689
2.647179365158081	1572
2.652193784713745	1609
2.6572265625	1494
2.6622369289398193	1151
2.667186975479126	946
2.672053337097168	888
2.676976203918457	881
2.6818296909332275	1106
2.686846971511841	1341
2.691812515258789	1432
2.6967570781707764	1891
2.7017617225646973	2594
2.7067782878875732	2586
2.7119224071502686	1846
2.7169106006622314	1593
2.7219760417938232	1773
2.7268996238708496	1722
2.7319324016571045	1563
2.736849308013916	1597
2.7419373989105225	1597
2.7468886375427246	1534
2.751913547515869	1597
2.7568798065185547	1613
2.7619099617004395	1508
2.7669436931610107	1533
2.771972894668579	1605
2.7770872116088867	1524
2.782100200653076	1490
2.78714919090271	1575
2.792236328125	1534
2.797208786010742	1455
2.8021719455718994	1532
2.80708909034729	1559
2.8120388984680176	1452
2.8171074390411377	1476
2.822077512741089	1546
2.8271379470825195	1458
2.832137107849121	1425
2.8370726108551025	1511
2.8420445919036865	1475
2.847060203552246	1395
2.8520748615264893	1466
2.857114315032959	1490
2.8620760440826416	1388
2.867077350616455	1419
2.8723032474517822	1488
2.8772385120391846	1412
2.8821680545806885	1396
2.8871688842773438	1491
2.8922030925750732	1464
2.8972058296203613	1398
2.902247905731201	1488
2.9072515964508057	1526
2.9121904373168945	1439
2.917192220687866	1478
2.922179698944092	1556
2.9272141456604004	1483
2.932325839996338	1464
2.9373764991760254	1565
2.942286491394043	1545
2.9472835063934326	1494
2.952242851257324	1590
2.9572243690490723	1638
2.962184190750122	1577
2.967177629470825	1634
2.97225284576416	1721
2.977274179458618	1661
2.9821696281433105	1657
2.987177848815918	1757
2.9921720027923584	1727
2.997220993041992	1648
3.002199411392212	1728
3.007215976715088	1752
3.012219190597534	1657
3.0172007083892822	1690
3.0222015380859375	1755
3.027174711227417	1673
3.0322160720825195	1643
3.037184238433838	1732
3.042192220687866	1684
3.047163248062134	1610
3.0521750450134277	1689
3.0571401119232178	1714
3.0622973442077637	1614
3.06722092628479	1647
3.072237968444824	1716
3.0772411823272705	1637
3.082313299179077	1613
3.087329149246216	1706
3.0923027992248535	1678
3.0973095893859863	1610
3.1022419929504395	1688
3.1072421073913574	1717
3.112236499786377	1631
3.1172845363616943	1681
3.122267007827759	1766
3.1272101402282715	1692
3.132233142852783	1658
3.137169122695923	1749
3.1421921253204346	1726
3.147193193435669	1641
3.1522438526153564	1689
3.1571848392486572	1700
3.162137031555176	1610
3.1671175956726074	1638
3.172154188156128	1716
3.177217960357666	1658
3.182220220565796	1631
3.1872718334198	1711
3.1923019886016846	1679
3.1973021030426025	1597
3.2022483348846436	1664
3.2072694301605225	1690
3.212242841720581	1599
3.2173287868499756	1633
3.2223124504089355	1689
3.2273097038269043	1572
3.232233762741089	1484
3.237295389175415	1379
3.2422916889190674	1097
3.2473697662353516	793
3.252304792404175	811
3.257214307785034	1072
3.262296438217163	1246
3.2673017978668213	1278
3.272315740585327	1574
3.277413845062256	2152
3.2824180126190186	2589
3.2874550819396973	2320
3.2924256324768066	1743
3.297457695007324	1539
3.3025035858154297	1700
3.307565927505493	1690
3.312525987625122	1515
3.31746244430542	1521
3.3224973678588867	1607
3.3275086879730225	1546
3.332556962966919	1512
3.337592840194702	1585
3.3426058292388916	1545
3.3476040363311768	1473
3.35249400138855	1546
3.357456684112549	1571
3.362542152404785	1469
3.367642879486084	1491
3.3726391792297363	1553
3.3776142597198486	1475
3.382601022720337	1444
3.3875515460968018	1520
3.392627239227295	1488
3.3976244926452637	1416
3.4026684761047363	1482
3.407752752304077	1499
3.4127166271209717	1403
3.4177310466766357	1426
3.4227547645568848	1487
3.427729368209839	1413
3.4327902793884277	1385
3.4379019737243652	1462
3.442927837371826	1422
3.448012113571167	1345
3.4529645442962646	1418
3.4579880237579346	1441
3.4630391597747803	1357
3.468038558959961	1403
3.4730045795440674	1477
3.478008508682251	1409
3.483090877532959	1404
3.4880635738372803	1497
3.493250608444214	1470
3.4981398582458496	1420
3.5031659603118896	1501
3.508087635040283	1530
3.5130844116210938	1458
3.518171787261963	1517
3.523069381713867	1601
3.528094530105591	1545
3.5332000255584717	1550
3.5381228923797607	1657
3.543142557144165	1642
3.54822039604187	1604
3.553091049194336	1693
3.558077335357666	1720
3.56302547454834	1640
3.568016529083252	1684
3.57306170463562	1749
3.5780375003814697	1678
3.583048105239868	1667
3.5880372524261475	1744
3.593007802963257	1709
3.5980618000030518	1645
3.6030678749084473	1715
3.6080162525177	1730
3.612990617752075	1636
3.618037223815918	1671
3.623015880584717	1728
3.6280195713043213	1653
3.633013963699341	1635
3.6379897594451904	1712
3.642965793609619	1675
3.6481099128723145	1612
3.6530869007110596	1684
3.658083915710449	1705
3.6631112098693848	1620
3.668065309524536	1662
3.673140525817871	1726
3.6780638694763184	1657
3.68308162689209	1657
3.6880991458892822	1757
3.693117141723633	1723
3.6981043815612793	1662
3.702993154525757	1725
3.708038091659546	1749
3.713146448135376	1665
3.7181222438812256	1688
3.723008394241333	1718
3.727982759475708	1636
3.733015298843384	1623
3.737969160079956	1710
3.7430307865142822	1695
3.7480080127716064	1641
3.752990961074829	1705
3.757963180541992	1714
3.762969493865967	1618
3.7680158615112305	1646
3.772977828979492	1710
3.7779998779296875	1636
3.7830076217651367	1614
3.7880661487579346	1698
3.793098211288452	1648
3.798068046569824	1563
3.803119421005249	1551
3.808089256286621	1338
3.8130598068237305	988
3.8180174827575684	827
3.8228743076324463	932
3.827824115753174	1093
3.832850694656372	1116
3.837846517562866	1205
3.842841148376465	1645
3.847909688949585	2253
3.8528547286987305	2573
3.8579041957855225	2098
3.862921953201294	1571
3.8679003715515137	1596
3.8729143142700195	1735
3.877876043319702	1612
3.882974147796631	1518
3.8879971504211426	1602
3.8929524421691895	1598
3.8979332447052	1523
3.902984380722046	1576
3.907896041870117	1597
3.9129552841186523	1505
3.9178569316864014	1527
3.922856569290161	1590
3.9278507232666016	1514
3.932896375656128	1480
3.937819242477417	1559
3.9428467750549316	1528
3.9478976726531982	1451
3.9529173374176025	1512
3.9579930305480957	1538
3.9630393981933594	1446
3.9680869579315186	1468
3.973071575164795	1527
3.97806715965271	1454
3.9831643104553223	1426
3.988152503967285	1504
3.993049144744873	1461
3.99802303314209	1385
4.003119230270386	1454
4.008214235305786	1473
4.013200759887695	1379
4.018216371536255	1403
4.023230791091919	1466
4.0282347202301025	1402
4.033143997192383	1386
4.038249254226685	1472
4.043250799179077	1448
4.048322916030884	1394
4.053329706192017	1472
4.058246374130249	1508
4.063269853591919	1438
4.068201065063477	1479
4.073222875595093	1550
4.078271150588989	1494
4.083245038986206	1488
4.088214159011841	1593
4.093245506286621	1589
4.098271369934082	1535
4.103203058242798	1623
4.1082258224487305	1674
4.113352537155151	1624
4.11834716796875	1672
4.123275995254517	1742
4.128240346908569	1681
4.133219957351685	1667
4.1382505893707275	1748
4.143292188644409	1715
4.148373603820801	1647
4.153358459472656	1718
4.158369064331055	1743
4.163346290588379	1662
4.168374300003052	1695
4.173386573791504	1751
4.178542852401733	1675
4.18348240852356	1655
4.188478946685791	1720
4.19348669052124	1680
4.198465347290039	1625
4.203479528427124	1691
4.2084877490997314	1702
4.2134177684783936	1625
4.21842885017395	1676
4.223454236984253	1742
4.228453636169434	1667
4.233503818511963	1653
4.238566637039185	1746
4.243614435195923	1726
4.248620510101318	1699
4.253575563430786	1802
4.2585508823394775	1809
4.263653993606567	1674
4.2686285972595215	1667
4.273526906967163	1738
4.278550624847412	1695
4.28352165222168	1669
4.288536310195923	1720
4.293452024459839	1669
4.298496723175049	1617
4.303525447845459	1702
4.308525085449219	1727
4.313428640365601	1650
4.318435430526733	1718
4.323493003845215	1807
4.32844877243042	1706
4.3334386348724365	1621
4.338499307632446	1665
4.3435516357421875	1656
4.348536014556885	1633
4.353415012359619	1714
4.358442544937134	1717
4.363504648208618	1635
4.368492364883423	1543
4.373401641845703	1349
4.378416538238525	989
4.383344411849976	821
4.388221740722656	986
4.393233060836792	1068
4.39821195602417	932
4.40315318107605	1185
4.40811014175415	1938
4.413130044937134	2562
4.418103456497192	2468
4.423057556152344	1911
4.428019762039185	1614
4.433009147644043	1679
4.437998533248901	1781
4.442975997924805	1719
4.447997570037842	1599
4.453053951263428	1604
4.458043575286865	1617
4.462953567504883	1556
4.468051433563232	1578
4.4730284214019775	1651
4.478034496307373	1595
4.4830262660980225	1550
4.488014221191406	1590
4.4929797649383545	1559
4.497990608215332	1514
4.503030061721802	1593
4.5080273151397705	1623
4.513002634048462	1511
4.518001556396484	1507
4.523078441619873	1587
4.528002500534058	1528
4.533025026321411	1483
4.538076162338257	1562
4.542996644973755	1550
4.547998666763306	1459
4.552974700927734	1494
4.557871103286743	1541
4.562869548797607	1470
4.567905902862549	1474
4.572879314422607	1537
4.577982664108276	1472
4.582996129989624	1418
4.587855339050293	1483
4.592829704284668	1479
4.597840785980225	1418
4.60286545753479	1497
4.607842445373535	1557
4.612886905670166	1480
4.617954969406128	1490
4.622826814651489	1569
4.627849340438843	1519
4.63279914855957	1476
4.637808084487915	1554
4.642701625823975	1575
4.6476945877075195	1546
4.652695178985596	1644
4.657721281051636	1685
4.662697076797485	1568
4.6676390171051025	1580
4.672687292098999	1712
4.677639722824097	1721
4.682710409164429	1698
4.687654495239258	1772
4.692626953125	1779
4.6976096630096436	1708
4.702594995498657	1761
4.707562685012817	1818
4.712561845779419	1745
4.7176477909088135	1737
4.722629070281982	1809
4.727554559707642	1767
4.73254919052124	1719
4.737582445144653	1786
4.742535829544067	1779
4.747534990310669	1695
4.752530336380005	1749
4.757555961608887	1801
4.762640953063965	1719
4.767620325088501	1706
4.772614240646362	1790
4.777588367462158	1753
4.782663106918335	1699
4.787654638290405	1766
4.792604923248291	1768
4.7976648807525635	1698
4.802619934082031	1761
4.80754542350769	1828
4.812647819519043	1754
4.817736864089966	1754
4.822762727737427	1835
4.827817440032959	1782
4.832832098007202	1737
4.837856292724609	1807
4.8428122997283936	1786
4.847893476486206	1681
4.852973222732544	1722
4.857985496520996	1770
4.862906217575073	1701
4.867966651916504	1723
4.8729612827301025	1791
4.877932786941528	1727
4.882977247238159	1673
4.888034105300903	1746
4.893014669418335	1733
4.89801025390625	1650
4.903015375137329	1707
4.908033609390259	1760
4.9130823612213135	1662
4.918131351470947	1628
4.923086881637573	1623
4.928008079528809	1375
4.933082580566406	1105
4.9381043910980225	971
4.943001985549927	909
4.947977304458618	976
4.9528844356536865	1139
4.957974672317505	1105
4.962883472442627	1366
4.967891693115234	2191
4.972839593887329	2809
4.977849006652832	2316
4.982893705368042	1655
4.98791766166687	1651
4.9929444789886475	1803
4.99792218208313	1697
5.002898693084717	1639
5.007863998413086	1658
5.012768030166626	1607
5.017784833908081	1614
5.0227952003479	1678
5.027750492095947	1613
5.032800912857056	1556
5.0377891063690186	1635
5.042830944061279	1630
5.047835826873779	1536
5.052783250808716	1582
5.05776834487915	1635
5.062792539596558	1560
5.067840099334717	1543
5.072864770889282	1609
5.077817678451538	1557
5.0827531814575195	1501
5.0877907276153564	1572
5.092744827270508	1571
5.0977232456207275	1484
5.102737188339233	1519
5.107790470123291	1561
5.112781047821045	1474
5.117783784866333	1467
5.122776985168457	1547
5.127748727798462	1497
5.132862091064453	1431
5.137872695922852	1507
5.142823219299316	1512
5.147772312164307	1427
5.152749061584473	1470
5.157738208770752	1537
5.162837743759155	1462
5.167793273925781	1453
5.172769784927368	1537
5.177802801132202	1508
5.182770729064941	1448
5.187787294387817	1524
5.19279932975769	1542
5.197928190231323	1466
5.202942132949829	1526
5.207918882369995	1596
5.212968349456787	1548
5.217899322509766	1569
5.222930669784546	1682
5.227869749069214	1666
5.232955694198608	1633
5.237995624542236	1717
5.2428953647613525	1738
5.247922420501709	1678
5.252965450286865	1737
5.257963180541992	1792
5.263002872467041	1722
5.267990350723267	1713
5.273013591766357	1786
5.278015851974487	1742
5.283009052276611	1691
5.2880144119262695	1763
5.292986631393433	1767
5.297963380813599	1679
5.302932262420654	1713
5.307918071746826	1762
5.312960624694824	1689
5.31804347038269	1677
5.323009729385376	1739
5.328031539916992	1696
5.332980394363403	1642
5.337916851043701	1713
5.34289288520813	1719
5.347978830337524	1639
5.3529393672943115	1684
5.357905387878418	1736
5.3628480434417725	1673
5.367799282073975	1688
5.372840404510498	1774
5.377908229827881	1733
5.382905721664429	1669
5.38787055015564	1746
5.392890214920044	1765
5.397849798202515	1675
5.402805328369141	1686
5.407738447189331	1716
5.4128313064575195	1640
5.41779899597168	1638
5.422785758972168	1721
5.427781820297241	1682
5.43271541595459	1622
5.4376380443573	1690
5.442611932754517	1702
5.447694778442383	1615
5.452739477157593	1638
5.457653760910034	1688
5.462777376174927	1613
5.4678544998168945	1606
5.4727702140808105	1675
5.477862596511841	1592
5.482913017272949	1456
5.487873077392578	1320
5.4928436279296875	1092
5.49784779548645	820
5.502843379974365	892
5.507689714431763	1163
5.512645244598389	1135
5.517655611038208	934
5.52255916595459	1266
5.5275866985321045	1985
5.532668352127075	2515
5.537703275680542	2251
5.542673587799072	1668
5.547750234603882	1459
5.55271577835083	1634
5.557715177536011	1699
5.562743186950684	1549
5.567713975906372	1503
5.572712659835815	1621
5.577764511108398	1607
5.582763910293579	1537
5.587738275527954	1591
5.592867136001587	1595
5.598053932189941	1504
5.603043794631958	1539
5.608019590377808	1587
5.612974643707275	1515
5.617955923080444	1505
5.623004198074341	1574
5.627994537353516	1525
5.63303542137146	1467
5.63807487487793	1545
5.643040657043457	1548
5.648014545440674	1440
5.652932167053223	1470
5.65794563293457	1529
5.66302490234375	1454
5.668020725250244	1437
5.672972679138184	1506
5.678155899047852	1462
5.683163642883301	1398
5.688172340393066	1463
5.693218946456909	1466
5.698184013366699	1379
5.703199625015259	1416
5.7081921100616455	1474
5.713283061981201	1400
5.7181618213653564	1387
5.723298788070679	1463
5.7281334400177	1430
5.733118534088135	1381
5.738110303878784	1458
5.743083238601685	1469
5.748242139816284	1389
5.753287076950073	1438
5.758248805999756	1503
5.763226270675659	1448
5.768216371536255	1469
5.773285627365112	1574
5.778245687484741	1554
5.783301115036011	1539
5.78829026222229	1642
5.793286561965942	1667
5.798471927642822	1621
5.803442001342773	1688
5.8085150718688965	1743
5.813665390014648	1671
5.818601608276367	1684
5.82355260848999	1761
5.828536510467529	1707
5.833630800247192	1663
5.838568925857544	1747
5.843565940856934	1746
5.84857439994812	1657
5.853498458862305	1701
5.858578681945801	1745
5.863597631454468	1671
5.868588209152222	1673
5.873539924621582	1737
5.878576278686523	1675
5.88358736038208	1630
5.888531923294067	1717
5.893468618392944	1716
5.898612976074219	1628
5.903640508651733	1681
5.908660173416138	1728
5.913651943206787	1649
5.9187140464782715	1659
5.9237635135650635	1738
5.9287614822387695	1688
5.933759927749634	1665
5.938756465911865	1746
5.943698883056641	1741
5.948710203170776	1663
5.953867435455322	1723
5.958814859390259	1765
5.963855266571045	1678
5.968871831893921	1665
5.97385048866272	1715
5.978828191757202	1654
5.983797550201416	1620
5.98886775970459	1700
5.993914842605591	1689
5.999035596847534	1617
6.003993272781372	1670
6.0089271068573	1700
6.01386833190918	1618
6.0188140869140625	1626
6.023813009262085	1688
6.028813600540161	1631
6.033976793289185	1598
6.038951635360718	1667
6.043946743011475	1610
6.048967599868774	1491
6.053988933563232	1365
6.0589399337768555	1142
6.063942193984985	858
6.068842649459839	913
6.0736846923828125	1223
6.07864785194397	1255
6.083712339401245	1013
6.088788986206055	1217
6.093733072280884	1781
6.098751068115234	2334
6.1036787033081055	2275
6.1087236404418945	1737
6.113740682601929	1434
6.118741989135742	1546
6.123786211013794	1686
6.128766775131226	1595
6.133749485015869	1527
6.1388444900512695	1616
6.143874168395996	1620
6.148893594741821	1533
6.153948068618774	1576
6.1589274406433105	1612
6.1638689041137695	1531
6.168895959854126	1540
6.173892259597778	1607
6.178938865661621	1543
6.183919668197632	1501
6.189081907272339	1575
6.194089889526367	1560
6.199023246765137	1483
6.2040441036224365	1527
6.209088325500488	1554
6.2140891551971436	1467
6.219126462936401	1475
6.22406005859375	1542
6.229136943817139	1479
6.234033823013306	1433
6.239065170288086	1505
6.24406099319458	1487
6.24915623664856	1406
6.254263401031494	1453
6.2590436935424805	1484
6.26404070854187	1401
6.268996953964233	1401
6.273991823196411	1470
6.278998136520386	1413
6.283996820449829	1377
6.289031267166138	1457
6.294090747833252	1451
6.299017667770386	1380
6.3041229248046875	1437
6.309118747711182	1477
6.314081192016602	1406
6.319037914276123	1428
6.324038743972778	1514
6.329185962677002	1478
6.3341755867004395	1474
6.33918309211731	1592
6.344127655029297	1613
6.349093198776245	1567
6.35414719581604	1651
6.359169244766235	1720
6.364119291305542	1660
6.36911416053772	1681
6.374056816101074	1765
6.379073619842529	1721
6.384035110473633	1690
6.3890392780303955	1771
6.394036293029785	1764
6.399041175842285	1682
6.404166221618652	1739
6.409082651138306	1780
6.414023399353027	1699
6.419074773788452	1713
6.4240882396698	1778
6.4290783405303955	1720
6.434054136276245	1679
6.439034461975098	1753
6.444061517715454	1742
6.449085474014282	1665
6.454191446304321	1725
6.459167003631592	1761
6.464113712310791	1673
6.46914267539978	1678
6.474139451980591	1747
6.479058265686035	1694
6.484114170074463	1652
6.4891135692596436	1731
6.494178771972656	1729
6.499172210693359	1657
6.504105806350708	1712
6.509212017059326	1754
6.514209032058716	1675
6.519094944000244	1692
6.524040937423706	1775
6.529187440872192	1735
6.5341105461120605	1702
6.539003372192383	1782
6.544008255004883	1774
6.549076318740845	1691
6.554076194763184	1749
6.559139966964722	1790
6.564103841781616	1694
6.569100856781006	1666
6.574013948440552	1720
6.57899022102356	1672
6.583993196487427	1636
6.588996171951294	1714
6.5939929485321045	1714
6.599013805389404	1631
6.603940725326538	1674
6.608962535858154	1715
6.614005088806152	1635
6.619023323059082	1634
6.623985528945923	1698
6.6289520263671875	1654
6.633846998214722	1611
6.638936758041382	1670
6.643988847732544	1619
6.649043560028076	1482
6.653939962387085	1338
6.658975124359131	1108
6.663989305496216	817
6.668814659118652	894
6.6737565994262695	1248
6.678883075714111	1283
6.683844089508057	1081
6.688816070556641	1293
6.693788051605225	1842
6.698692798614502	2386
6.703690052032471	2289
6.70874810218811	1771
6.71375298500061	1470
6.7188591957092285	1547
6.723889589309692	1672
6.728886604309082	1592
6.73385763168335	1524
6.738843679428101	1607
6.743831634521484	1617
6.748828649520874	1527
6.753860950469971	1562
6.758882522583008	1602
6.763818979263306	1523
6.768827676773071	1515
6.773850679397583	1591
6.778814792633057	1548
6.783768892288208	1485
6.78873610496521	1549
6.793709754943848	1557
6.798661470413208	1470
6.803687334060669	1501
6.808695077896118	1549
6.813699722290039	1468
6.818699359893799	1453
6.823776721954346	1518
6.828906297683716	1463
6.83390998840332	1404
6.838993072509766	1470
6.843973875045776	1464
6.848954677581787	1370
6.85396409034729	1408
6.85900616645813	1445
6.864085912704468	1357
6.869104862213135	1351
6.874060392379761	1424
6.879118204116821	1370
6.884021759033203	1316
6.889093637466431	1390
6.8941123485565186	1390
6.899093151092529	1310
6.904069185256958	1364
6.909034490585327	1423
6.914160966873169	1348
6.919183015823364	1359
6.924164295196533	1452
6.929163455963135	1435
6.934143543243408	1428
6.939162492752075	1534
6.944188833236694	1574
6.9491071701049805	1531
6.954117298126221	1622
6.958999156951904	1698
6.963942766189575	1642
6.968966484069824	1653
6.973968982696533	1749
6.978977918624878	1715
6.984028339385986	1671
6.989029169082642	1753
6.99407434463501	1761
6.999070644378662	1676
7.004101276397705	1722
7.0092127323150635	1769
7.014139652252197	1690
7.019147634506226	1686
7.024138450622559	1761
7.029198169708252	1713
7.034177780151367	1665
7.039227247238159	1734
7.044222593307495	1733
7.049224138259888	1649
7.054252862930298	1693
7.059351444244385	1736
7.064354181289673	1652
7.069337606430054	1657
7.0743186473846436	1735
7.079340219497681	1684
7.084335088729858	1638
7.0893566608428955	1706
7.094303131103516	1704
7.099326133728027	1625
7.104364633560181	1682
7.109279155731201	1728
7.1142730712890625	1646
7.119305372238159	1649
7.124311685562134	1724
7.129323482513428	1675
7.134374618530273	1630
7.13936710357666	1707
7.144383430480957	1706
7.149425983428955	1626
7.154501914978027	1679
7.15959620475769	1721
7.164626836776733	1643
7.1696617603302	1655
7.1746907234191895	1725
7.179737329483032	1661
7.184768915176392	1624
7.189820289611816	1705
7.194792032241821	1696
7.199687719345093	1617
7.204698324203491	1675
7.209805250167847	1712
7.214788436889648	1627
7.219721078872681	1642
7.224713087081909	1707
7.229698657989502	1643
7.234598875045776	1611
7.2396087646484375	1691
7.24460244178772	1684
7.249588251113892	1604
7.2545671463012695	1660
7.259618043899536	1703
7.264646768569946	1626
7.269641160964966	1643
7.27462363243103	1719
7.279629707336426	1662
7.2845988273620605	1610
7.289604902267456	1681
7.294648885726929	1678
7.299709320068359	1601
7.3046958446502686	1631
7.309765338897705	1650
7.314667463302612	1567
7.319739103317261	1589
7.3248395919799805	1654
7.329916477203369	1589
7.334892749786377	1561
7.3399505615234375	1641
7.344890832901001	1619
7.349964380264282	1542
7.3550543785095215	1601
7.3600757122039795	1630
7.365041255950928	1541
7.370048999786377	1557
7.3751490116119385	1630
7.380146503448486	1571
7.385117292404175	1531
7.390120506286621	1598
7.395115375518799	1515
7.400229454040527	1202
7.405222654342651	927
7.410187005996704	737
7.415038347244263	703
7.419884443283081	898
7.4247353076934814	924
7.429768085479736	821
7.434615135192871	1160
7.439520597457886	1949
7.444519758224487	2511
7.449573993682861	2115
7.454622268676758	1583
7.459742307662964	1487
7.464736700057983	1496
7.469824552536011	1534
7.474847078323364	1580
7.479775428771973	1513
7.484748363494873	1474
7.489740610122681	1551
7.494767665863037	1538
7.499696731567383	1454
7.50472092628479	1504
7.509690284729004	1542
7.514692544937134	1451
7.5198142528533936	1456
7.52480673789978	1530
7.529738664627075	1468
7.534759998321533	1420
7.539788246154785	1491
7.544740200042725	1483
7.5497214794158936	1404
7.554702043533325	1443
7.559695482254028	1477
7.564761638641357	1396
7.569808483123779	1397
7.574831008911133	1464
7.579843997955322	1403
7.584812879562378	1355
7.589854001998901	1424
7.594855308532715	1410
7.599801778793335	1322
7.604875802993774	1368
7.609935522079468	1404
7.614914894104004	1320
7.619915246963501	1321
7.625025510787964	1388
7.630051612854004	1330
7.6350202560424805	1293
7.6400439739227295	1381
7.645057916641235	1373
7.650054454803467	1303
7.654968738555908	1363
7.659966707229614	1409
7.664970874786377	1339
7.670044422149658	1368
7.675041437149048	1460
7.680081367492676	1429
7.685128450393677	1426
7.690104722976685	1547
7.695136070251465	1575
7.70013689994812	1538
7.705129861831665	1624
7.71011209487915	1681
7.715186357498169	1615
7.7202229499816895	1650
7.7252278327941895	1732
7.7302892208099365	1680
7.735239267349243	1648
7.7402918338775635	1720
7.745236158370972	1702
7.7501702308654785	1634
7.755232095718384	1695
7.760251998901367	1725
7.76525354385376	1639
7.770302772521973	1657
7.775248289108276	1724
7.780240297317505	1660
7.785330057144165	1625
7.79030966758728	1702
7.795313358306885	1682
7.800297021865845	1608
7.805332660675049	1664
7.810336351394653	1696
7.815339088439941	1613
7.820348739624023	1632
7.825343608856201	1703
7.830348253250122	1641
7.835370779037476	1610
7.840363264083862	1689
7.845407962799072	1674
7.8503217697143555	1606
7.855401039123535	1667
7.860442876815796	1703
7.865412950515747	1624
7.870376825332642	1644
7.875380992889404	1708
7.880329847335815	1648
7.885340213775635	1619
7.890390872955322	1703
7.895321846008301	1688
7.90028715133667	1615
7.905326843261719	1675
7.910345077514648	1710
7.915360450744629	1630
7.920320510864258	1646
7.92533802986145	1714
7.930279493331909	1655
7.935370683670044	1624
7.940392255783081	1704
7.945356130599976	1686
7.950366020202637	1617
7.955441474914551	1675
7.960435152053833	1701
7.965397119522095	1621
7.9704790115356445	1641
7.975446701049805	1708
7.98045015335083	1646
7.9854652881622314	1618
7.990437984466553	1697
7.995414972305298	1676
8.000356912612915	1605
8.005401134490967	1663
8.010445833206177	1692
8.015453577041626	1610
8.020453453063965	1629
8.02547550201416	1697
8.030458450317383	1636
8.035402536392212	1608
8.040452480316162	1687
8.045488595962524	1670
8.050488471984863	1595
8.055580139160156	1654
8.060510635375977	1689
8.065423727035522	1613
8.070402383804321	1629
8.0753333568573	1694
8.080395698547363	1632
8.08545184135437	1604
8.090411186218262	1699
8.095414400100708	1689
8.100412368774414	1613
8.105424880981445	1665
8.110336542129517	1701
8.11536455154419	1626
8.120406866073608	1643
8.125515699386597	1694
8.130516290664673	1611
8.135537147521973	1571
8.14048981666565	1661
8.145464420318604	1655
8.150453805923462	1583
8.155476570129395	1641
8.160504579544067	1680
8.165504455566406	1599
8.170544624328613	1612
8.175566673278809	1675
8.180585145950317	1611
8.185682773590088	1577
8.190703868865967	1648
8.195653200149536	1624
8.20076322555542	1558
8.205783128738403	1621
8.210841655731201	1640
8.215835809707642	1538
8.220896482467651	1400
8.225845336914062	1176
8.230764865875244	811
8.235802173614502	677
8.240689039230347	858
8.245508670806885	817
8.250400304794312	587
8.25533676147461	891
8.260207176208496	1653
8.265218496322632	2331
8.270259141921997	2404
8.275249004364014	1893
8.2802095413208	1505
8.28523564338684	1495
8.29021167755127	1629
8.295197486877441	1602
8.300273180007935	1496
8.305357694625854	1549
8.310262441635132	1597
8.315263271331787	1515
8.320329904556274	1517
8.325236797332764	1584
8.330241203308105	1527
8.335200548171997	1473
8.340250730514526	1539
8.345225811004639	1537
8.350273132324219	1451
8.355205774307251	1495
8.360199213027954	1536
8.365311622619629	1446
8.370365381240845	1453
8.375378847122192	1517
8.380371570587158	1455
8.385510683059692	1407
8.390449047088623	1482
8.395430564880371	1472
8.400377988815308	1391
8.405455827713013	1435
8.410475969314575	1463
8.415535688400269	1377
8.420481443405151	1378
8.42550253868103	1440
8.430516719818115	1376
8.435500144958496	1329
8.44048523902893	1402
8.445461750030518	1393
8.450523614883423	1322
8.455438375473022	1375
8.460429906845093	1416
8.465380668640137	1334
8.470438480377197	1353
8.475575685501099	1439
8.480546951293945	1390
8.48558521270752	1358
8.490582466125488	1452
8.495606184005737	1460
8.500553607940674	1403
8.50568413734436	1489
8.51062560081482	1559
8.515621185302734	1508
8.520622491836548	1556
8.525704622268677	1655
8.53071403503418	1624
8.535790205001831	1617
8.54079270362854	1712
8.545946598052979	1705
8.550915479660034	1648
8.55604100227356	1718
8.560968160629272	1749
8.565968036651611	1672
8.570960521697998	1693
8.575990915298462	1751
8.580990314483643	1685
8.585964679718018	1659
8.59096097946167	1736
8.59602952003479	1711
8.600979804992676	1639
8.60599660873413	1698
8.610993146896362	1730
8.615901470184326	1645
8.620885133743286	1658
8.625967741012573	1724
8.63094162940979	1662
8.635993003845215	1628
8.640965938568115	1699
8.645987272262573	1683
8.65098237991333	1614
8.656131029129028	1682
8.66114068031311	1707
8.666200160980225	1627
8.671173810958862	1659
8.676169872283936	1714
8.681134939193726	1646
8.686118125915527	1626
8.691084146499634	1710
8.696032285690308	1689
8.70102310180664	1628
8.706057071685791	1693
8.711026430130005	1721
8.716023445129395	1638
8.721047163009644	1662
8.726059913635254	1732
8.731095790863037	1664
8.736093044281006	1640
8.741175889968872	1720
8.746241569519043	1694
8.751200437545776	1629
8.756209135055542	1694
8.761194229125977	1722
8.766217708587646	1641
8.77121353149414	1667
8.776170015335083	1726
8.781172275543213	1659
8.786212921142578	1639
8.79110050201416	1714
8.796181201934814	1689
8.80121898651123	1623
8.806316137313843	1691
8.811375617980957	1713
8.81640076637268	1629
8.82142162322998	1659
8.826338052749634	1718
8.831315517425537	1646
8.83633303642273	1622
8.841403484344482	1704
8.846349000930786	1681
8.85135293006897	1610
8.856413841247559	1673
8.861378192901611	1690
8.866300821304321	1609
8.871411085128784	1640
8.876473903656006	1700
8.881479978561401	1631
8.886722087860107	1610
8.89171290397644	1686
8.896640062332153	1654
8.901607036590576	1592
8.906614065170288	1658
8.911641597747803	1672
8.916725158691406	1591
8.921732425689697	1629
8.926689863204956	1680
8.931666135787964	1607
8.936681509017944	1593
8.941636085510254	1674
8.946584224700928	1642
8.951678276062012	1584
8.956701517105103	1651
8.961660861968994	1668
8.966634035110474	1593
8.971697807312012	1633
8.97666621208191	1692
8.981692790985107	1625
8.986734390258789	1613
8.991742610931396	1690
8.996730089187622	1652
9.001769065856934	1597
9.006744861602783	1665
9.011735439300537	1658
9.01678729057312	1558
9.021755933761597	1592
9.026754140853882	1660
9.031802415847778	1589
9.036823749542236	1583
9.041913509368896	1665
9.046906471252441	1627
9.051892518997192	1566
9.056891202926636	1631
9.061932802200317	1637
9.066931009292603	1554
9.071961641311646	1600
9.07697582244873	1648
9.081883430480957	1572
9.086912393569946	1567
9.091891527175903	1647
9.096941232681274	1600
9.102000951766968	1492
9.107012033462524	1348
9.111937522888184	1061
9.116888761520386	723
9.12188196182251	743
9.126766920089722	893
9.131622076034546	709
9.136591672897339	579
9.141499996185303	1111
9.146552324295044	1928
9.151469707489014	2493
9.156445980072021	2290
9.161433696746826	1729
9.166468858718872	1490
9.171483278274536	1602
9.17643666267395	1677
9.181380033493042	1561
9.186348676681519	1510
9.191306829452515	1605
9.196278095245361	1599
9.201276302337646	1519
9.206238508224487	1573
9.211201429367065	1603
9.21617865562439	1515
9.221227169036865	1531
9.226386547088623	1593
9.23138427734375	1521
9.236412763595581	1488
9.241429567337036	1565
9.246483564376831	1537
9.25153636932373	1463
9.256553888320923	1518
9.261627912521362	1543
9.266554594039917	1461
9.271560907363892	1481
9.276592016220093	1536
9.281593084335327	1463
9.286621809005737	1431
9.291659355163574	1503
9.296623945236206	1472
9.301605939865112	1400
9.30658221244812	1460
9.311677932739258	1479
9.316661357879639	1396
9.321618795394897	1422
9.326603651046753	1481
9.331578731536865	1411
9.336531639099121	1383
9.34158205986023	1462
9.346678733825684	1440
9.351640462875366	1375
9.356643915176392	1443
9.3617262840271	1484
9.366623878479004	1410
9.371655941009521	1444
9.376726865768433	1518
9.38168454170227	1470
9.386690616607666	1464
9.391688585281372	1568
9.39669418334961	1572
9.401623725891113	1543
9.406784772872925	1647
9.411828994750977	1700
9.416802406311035	1647
9.421807289123535	1704
9.426777124404907	1788
9.43178415298462	1737
9.436716318130493	1721
9.441733121871948	1799
9.446676254272461	1783
9.45163631439209	1720
9.456637859344482	1789
9.46166706085205	1814
9.466652154922485	1728
9.471697807312012	1756
9.476691007614136	1826
9.481751680374146	1754
9.4867844581604	1723
9.491769552230835	1801
9.496744632720947	1772
9.501789569854736	1697
9.506768465042114	1755
9.511727809906006	1785
9.516734600067139	1703
9.521774053573608	1728
9.526841640472412	1785
9.531817197799683	1712
9.537001848220825	1689
9.541990041732788	1765
9.547013521194458	1738
9.552043437957764	1678
9.557084560394287	1747
9.562073945999146	1769
9.567076206207275	1689
9.572064876556396	1725
9.577043056488037	1787
9.581984519958496	1716
9.587005615234375	1698
9.592028617858887	1783
9.596980810165405	1758
9.601987361907959	1702
9.606981754302979	1771
9.611936807632446	1785
9.616842985153198	1697
9.621918678283691	1731
9.626832246780396	1797
9.631931781768799	1728
9.636981964111328	1709
9.641898155212402	1791
9.64694595336914	1757
9.65192198753357	1690
9.656887769699097	1757
9.66192889213562	1785
9.666947364807129	1699
9.671948194503784	1729
9.676944017410278	1799
9.68194580078125	1733
9.687012434005737	1699
9.691974401473999	1775
9.696954488754272	1752
9.70200252532959	1691
9.706965208053589	1751
9.71195387840271	1772
9.716995239257812	1684
9.721958875656128	1716
9.726956844329834	1774
9.731958389282227	1702
9.7369544506073	1682
9.741937398910522	1771
9.746976613998413	1741
9.752030372619629	1670
9.757047891616821	1739
9.762025833129883	1760
9.766997575759888	1672
9.77202820777893	1698
9.777071952819824	1759
9.782116651535034	1693
9.787076473236084	1667
9.792062759399414	1745
9.79706621170044	1726
9.802077770233154	1670
9.807072639465332	1731
9.812105417251587	1750
9.817073106765747	1669
9.82217001914978	1703
9.827253818511963	1767
9.8322434425354	1709
9.837236404418945	1695
9.842198848724365	1768
9.847223281860352	1724
9.852126121520996	1659
9.857072353363037	1714
9.86209774017334	1721
9.867100477218628	1629
9.872129201889038	1663
9.877251148223877	1730
9.882272720336914	1663
9.887327671051025	1647
9.892305612564087	1722
9.89727520942688	1685
9.902276992797852	1626
9.907255172729492	1687
9.912256240844727	1705
9.917227506637573	1623
9.922280550003052	1646
9.927242279052734	1701
9.932302951812744	1629
9.937350988388062	1605
9.94240951538086	1664
9.947433710098267	1555
9.952488899230957	1270
9.957571506500244	1067
9.962592840194702	851
9.967454433441162	738
9.97236442565918	849
9.977293491363525	852
9.982105016708374	684
9.987044095993042	1123
9.992002964019775	2119
9.996992588043213	2712
10.002025365829468	2206
10.00703239440918	1662
10.012000799179077	1610
10.016912937164307	1664
10.021969556808472	1669
10.026918888092041	1648
10.032018661499023	1559
10.036991834640503	1552
10.041929721832275	1636
10.046950340270996	1605
10.051960706710815	1528
10.056923866271973	1588
10.061875820159912	1617
10.066848993301392	1524
10.071804523468018	1537
10.076756954193115	1597
10.081783771514893	1530
10.086884498596191	1496
10.091847658157349	1573
10.096867799758911	1553
10.101929664611816	1468
10.106994390487671	1504
10.11199426651001	1539
10.11699628829956	1458
10.121962308883667	1474
10.126958847045898	1533
10.131958961486816	1458
10.13700819015503	1421
10.1419837474823	1495
10.147011041641235	1466
10.152066707611084	1387
10.156976699829102	1444
10.161914348602295	1470
10.166901350021362	1379
10.171999216079712	1376
10.176985263824463	1434
10.181937456130981	1374
10.186963319778442	1347
10.191975593566895	1426
10.197005271911621	1408
10.202006816864014	1342
10.207007646560669	1398
10.212093591690063	1434
10.217120885848999	1369
10.2221519947052	1408
10.227120876312256	1489
10.232067584991455	1442
10.237031936645508	1443
10.24205756187439	1568
10.247111320495605	1588
10.25223970413208	1552
10.257270097732544	1640
10.262248516082764	1691
10.267201900482178	1643
10.272250175476074	1692
10.277181148529053	1771
10.28217625617981	1709
10.2871572971344	1686
10.29227352142334	1774
10.297328472137451	1754
10.302316427230835	1695
10.307287454605103	1767
10.312348365783691	1793
10.317363500595093	1704
10.322378396987915	1723
10.327356815338135	1781
10.332305669784546	1716
10.337308406829834	1691
10.342346429824829	1763
10.34734582901001	1729
10.352463006973267	1658
10.357460021972656	1719
10.36243987083435	1742
10.367534637451172	1651
10.372580289840698	1675
10.377548456192017	1730
10.38262391090393	1658
10.387600421905518	1646
10.392592430114746	1714
10.397625207901001	1678
10.402641773223877	1619
10.40766429901123	1681
10.41261911392212	1701
10.417561769485474	1623
10.422636985778809	1662
10.427619218826294	1728
10.432715654373169	1661
10.437740802764893	1646
10.442701816558838	1717
10.447750806808472	1683
10.452761888504028	1636
10.45780897140503	1710
10.46284294128418	1718
10.467833518981934	1626
10.472791910171509	1666
10.477890253067017	1724
10.482943773269653	1657
10.487889289855957	1640
10.492865324020386	1711
10.497917652130127	1670
10.502922296524048	1621
10.507981061935425	1695
10.512942790985107	1707
10.517918109893799	1616
10.522972583770752	1651
10.527963638305664	1708
10.532911539077759	1642
10.537885427474976	1636
10.54293155670166	1707
10.54795527458191	1661
10.553066968917847	1608
10.558075428009033	1679
10.563074350357056	1683
10.568122625350952	1602
10.57309865951538	1639
10.578132629394531	1692
10.583130836486816	1620
10.588163137435913	1613
10.593196153640747	1681
10.5981285572052	1636
10.603120803833008	1589
10.608116626739502	1662
10.61311149597168	1677
10.618159532546997	1593
10.623276948928833	1637
10.628247737884521	1689
10.633215427398682	1624
10.638270139694214	1619
10.643422842025757	1689
10.648361206054688	1640
10.653398275375366	1596
10.658360242843628	1669
10.663451910018921	1660
10.668373584747314	1564
10.673396587371826	1600
10.6783607006073	1643
10.683419227600098	1573
10.688366651535034	1579
10.693342208862305	1639
10.698336839675903	1586
10.703369379043579	1545
10.708338737487793	1620
10.71328854560852	1613
10.718296527862549	1524
10.723267316818237	1566
10.728285551071167	1610
10.733211517333984	1536
10.738244771957397	1526
10.743229389190674	1598
10.748239994049072	1542
10.753268718719482	1472
10.75817584991455	1438
10.763262271881104	1193
10.768181085586548	822
10.773138284683228	688
10.777963161468506	815
10.782814979553223	910
10.78773021697998	787
10.792601585388184	762
10.797475576400757	1222
10.802412509918213	1971
10.807404518127441	2532
10.81245493888855	2127
10.81742238998413	1479
10.822392702102661	1430
10.827467203140259	1623
10.832408905029297	1555
10.83741021156311	1453
10.842392444610596	1513
10.847416877746582	1520
10.852362871170044	1456
10.857340574264526	1503
10.862369537353516	1527
10.867518663406372	1437
10.872452974319458	1449
10.87747597694397	1515
10.882411479949951	1452
10.887377262115479	1413
10.89241099357605	1486
10.897369146347046	1470
10.90237545967102	1393
10.907394647598267	1439
10.912280797958374	1463
10.917253494262695	1375
10.922221183776855	1384
10.927295684814453	1451
10.932265281677246	1389
10.937243938446045	1335
10.942291021347046	1403
10.947290658950806	1390
10.952238321304321	1307
10.957217693328857	1350
10.962296485900879	1379
10.967285871505737	1291
10.972218036651611	1294
10.977216958999634	1360
10.982218503952026	1297
10.987238645553589	1254
10.99235463142395	1327
10.997366905212402	1315
11.002314329147339	1239
11.007341861724854	1293
11.012439966201782	1334
11.017565250396729	1260
11.022509813308716	1281
11.027537107467651	1366
11.032522201538086	1319
11.037460565567017	1306
11.042443990707397	1416
11.047420263290405	1441
11.05245590209961	1403
11.05741810798645	1499
11.062438726425171	1583
11.067419528961182	1544
11.072461128234863	1590
11.07751750946045	1682
11.082590341567993	1640
11.087519645690918	1627
11.092514991760254	1715
11.097474813461304	1706
11.102420330047607	1631
11.107518672943115	1691
11.11251950263977	1734
11.11759352684021	1653
11.122585535049438	1673
11.127625942230225	1748
11.13265323638916	1684
11.137594938278198	1643
11.142609357833862	1714
11.14761757850647	1694
11.152620077133179	1619
11.157684803009033	1675
11.162628412246704	1704
11.167545080184937	1624
11.172552347183228	1639
11.17758560180664	1697
11.182579040527344	1635
11.187617540359497	1606
11.192611932754517	1686
11.197566747665405	1665
11.202709913253784	1588
11.207749366760254	1650
11.212748765945435	1680
11.217714071273804	1598
11.222737789154053	1618
11.227741479873657	1686
11.232742071151733	1627
11.237643718719482	1596
11.24263882637024	1673
11.247642517089844	1653
11.25261926651001	1586
11.257588624954224	1649
11.262667655944824	1685
11.267691135406494	1606
11.272640705108643	1625
11.277652025222778	1692
11.28266429901123	1629
11.28774905204773	1602
11.29276967048645	1678
11.297861576080322	1657
11.30286717414856	1586
11.30790090560913	1650
11.31293249130249	1680
11.317871570587158	1595
11.322844743728638	1617
11.327911615371704	1684
11.332859516143799	1618
11.337887287139893	1584
11.342853784561157	1668
11.347838163375854	1651
11.352819919586182	1588
11.357845306396484	1646
11.362980127334595	1666
11.36798882484436	1587
11.372893571853638	1616
11.37782096862793	1674
11.382869958877563	1605
11.387900829315186	1573
11.392910480499268	1654
11.397864580154419	1634
11.402871131896973	1565
11.407848596572876	1620
11.412841320037842	1648
11.417888164520264	1571
11.422958374023438	1593
11.427982330322266	1660
11.43289589881897	1591
11.437987327575684	1567
11.442964792251587	1649
11.447943687438965	1629
11.452988624572754	1560
11.457919836044312	1626
11.462886571884155	1649
11.4678795337677	1571
11.47290563583374	1598
11.477947473526001	1671
11.482928276062012	1609
11.488127946853638	1585
11.493199586868286	1667
11.49819827079773	1643
11.503221988677979	1573
11.508239507675171	1636
11.513239860534668	1652
11.518372058868408	1551
11.52336573600769	1568
11.528288125991821	1631
11.533316850662231	1574
11.538361072540283	1560
11.543355464935303	1635
11.548304080963135	1605
11.553385257720947	1544
11.558362007141113	1606
11.563324451446533	1622
11.568290710449219	1534
11.573287963867188	1559
11.578277826309204	1619
11.583316802978516	1548
11.588312149047852	1529
11.593238592147827	1606
11.598272800445557	1561
11.603299379348755	1450
11.608304977416992	1302
11.613395690917969	1006
11.618316411972046	641
11.62324571609497	651
11.628183364868164	950
11.633102893829346	962
11.637946367263794	782
11.642838478088379	1054
11.647826910018921	1706
11.652784824371338	2340
11.65779447555542	2364
11.662843942642212	1801
11.667920112609863	1415
11.672969579696655	1486
11.677932977676392	1606
11.683048009872437	1513
11.688144207000732	1453
11.693147897720337	1536
11.69821047782898	1522
11.703158617019653	1452
11.70817518234253	1502
11.713118314743042	1523
11.718247890472412	1441
11.723222494125366	1462
11.728143215179443	1521
11.733186960220337	1452
11.738179206848145	1424
11.743123769760132	1497
11.748116731643677	1474
11.753135681152344	1393
11.758222818374634	1453
11.763227224349976	1480
11.768262147903442	1389
11.773252964019775	1402
11.778143644332886	1466
11.78314208984375	1398
11.788228750228882	1354
11.793187618255615	1424
11.798170328140259	1398
11.803171396255493	1318
11.80826473236084	1369
11.813296556472778	1384
11.818295240402222	1292
11.823249578475952	1309
11.828272104263306	1363
11.833326816558838	1280
11.838289499282837	1246
11.843214750289917	1327
11.848212480545044	1304
11.853306770324707	1238
11.858293533325195	1305
11.863351345062256	1337
11.868372440338135	1261
11.873383045196533	1299
11.878377199172974	1379
11.88339376449585	1336
11.888426303863525	1346
11.893367290496826	1470
11.898360252380371	1489
11.90337324142456	1464
11.90832233428955	1575
11.91346526145935	1643
11.91847038269043	1596
11.923433303833008	1649
11.928341150283813	1732
11.933369398117065	1682
11.938403129577637	1667
11.943348407745361	1754
11.948413848876953	1736
11.953431844711304	1670
11.958391904830933	1736
11.963345527648926	1766
11.96834921836853	1688
11.973402976989746	1715
11.978512525558472	1771
11.983535528182983	1702
11.988525629043579	1682
11.993589401245117	1761
11.99852204322815	1733
12.003523111343384	1663
12.008570194244385	1726
12.013582706451416	1740
12.018621444702148	1652
12.023627996444702	1677
12.028634309768677	1733
12.03355622291565	1667
12.03870940208435	1648
12.043717622756958	1721
12.048739433288574	1683
12.053770780563354	1622
12.058921098709106	1692
12.063858032226562	1706
12.068914651870728	1624
12.073903799057007	1668
12.078902959823608	1728
12.083907127380371	1656
12.08890151977539	1646
12.09392762184143	1717
12.0989670753479	1680
12.103923797607422	1631
12.108923196792603	1706
12.113881349563599	1722
12.118912935256958	1640
12.12391448020935	1677
12.128980159759521	1734
12.134022235870361	1667
12.138976335525513	1657
12.143993854522705	1730
12.148946046829224	1693
12.153996706008911	1637
12.159015655517578	1709
12.164061307907104	1719
12.16911768913269	1641
12.174091339111328	1688
12.179204940795898	1736
12.18418836593628	1661
12.189253568649292	1659
12.194246053695679	1732
12.199236869812012	1684
12.204235553741455	1633
12.209351778030396	1708
12.214252471923828	1713
12.219262599945068	1631
12.224422454833984	1683
12.229387521743774	1729
12.234526634216309	1647
12.239498138427734	1650
12.244518280029297	1720
12.249432563781738	1666
12.25443410873413	1620
12.259522914886475	1697
12.2645423412323	1697
12.269625902175903	1612
12.274658441543579	1665
12.279619693756104	1709
12.28466272354126	1628
12.289668560028076	1630
12.294671058654785	1702
12.299655199050903	1644
12.304654836654663	1603
12.309649229049683	1682
12.314677476882935	1673
12.319681882858276	1594
12.324631214141846	1645
12.329604864120483	1685
12.334609270095825	1608
12.339589595794678	1613
12.344604969024658	1685
12.349630117416382	1633
12.35459280014038	1588
12.359610319137573	1658
12.364501714706421	1658
12.36953067779541	1579
12.374550819396973	1628
12.37957501411438	1675
12.384575843811035	1594
12.389601469039917	1596
12.394622087478638	1675
12.399559497833252	1626
12.404560565948486	1575
12.40957498550415	1646
12.414572954177856	1644
12.419549226760864	1564
12.424533367156982	1622
12.429431676864624	1669
12.434391260147095	1588
12.439454555511475	1588
12.444484949111938	1668
12.449559926986694	1618
12.454540252685547	1567
12.459557056427002	1639
12.46445608139038	1647
12.46959638595581	1567
12.474559545516968	1611
12.479532241821289	1662
12.48459529876709	1587
12.489670515060425	1585
12.49462890625	1657
12.499633550643921	1609
12.504608154296875	1562
12.50960922241211	1639
12.514593362808228	1643
12.5196373462677	1566
12.524667739868164	1618
12.52960205078125	1665
12.534714460372925	1586
12.53976058959961	1593
12.544782161712646	1672
12.549782752990723	1616
12.554811477661133	1567
12.559814453125	1628
12.564927101135254	1610
12.570020914077759	1530
12.575021505355835	1594
12.579976081848145	1644
12.584998607635498	1566
12.589998960494995	1575
12.59502124786377	1645
12.600041627883911	1586
12.605066299438477	1545
12.610042572021484	1618
12.614946603775024	1602
12.62000322341919	1525
12.624989748001099	1576
12.629962921142578	1614
12.634960889816284	1539
12.640035629272461	1544
12.645033359527588	1585
12.649920463562012	1346
12.654909133911133	1009
12.659900665283203	793
12.664795637130737	718
12.669716358184814	761
12.674644708633423	810
12.679493427276611	698
12.684303283691406	811
12.689310312271118	1482
12.694359302520752	2345
12.69935917854309	2436
12.704322338104248	1809
12.709357738494873	1528
12.714352130889893	1581
12.719362020492554	1552
12.724334001541138	1561
12.729440927505493	1582
12.734394788742065	1510
12.739430904388428	1514
12.744405031204224	1589
12.749560356140137	1539
12.754398107528687	1476
12.759393692016602	1545
12.764325380325317	1557
12.769288301467896	1468
12.774230241775513	1504
12.779223918914795	1559
12.784285306930542	1484
12.789284706115723	1461
12.79425835609436	1531
12.799262762069702	1492
12.804219484329224	1428
12.809216976165771	1495
12.814261436462402	1506
12.819327116012573	1411
12.82436490058899	1443
12.829411506652832	1498
12.834397792816162	1418
12.839403629302979	1398
12.844403743743896	1467
12.849517345428467	1417
12.854523420333862	1346
12.859602689743042	1411
12.864553689956665	1414
12.869506359100342	1321
12.874555587768555	1355
12.879683017730713	1404
12.88467526435852	1319
12.889769077301025	1313
12.894800901412964	1389
12.899828910827637	1340
12.90491247177124	1301
12.910035371780396	1387
12.915133237838745	1399
12.920058965682983	1339
12.925050020217896	1409
12.930004119873047	1467
12.935024738311768	1418
12.94012999534607	1465
12.945066928863525	1580
12.950139045715332	1563
12.955131769180298	1561
12.960105419158936	1670
12.965125560760498	1694
12.97010850906372	1641
12.975058794021606	1713
12.980058670043945	1770
12.98501968383789	1702
12.98994517326355	1710
12.994954109191895	1795
13.000047445297241	1748
13.005104780197144	1700
13.010109663009644	1782
13.015058040618896	1779
13.020024061203003	1698
13.025023698806763	1747
13.030102968215942	1788
13.035098791122437	1700
13.040172100067139	1705
13.045162916183472	1781
13.050203323364258	1730
13.055238485336304	1685
13.060285329818726	1755
13.06529450416565	1746
13.070301532745361	1669
13.075293064117432	1720
13.08026647567749	1761
13.085215091705322	1672
13.090235471725464	1679
13.095289707183838	1755
13.100265264511108	1706
13.105196714401245	1657
13.1101975440979	1730
13.115206003189087	1726
13.120134115219116	1654
13.125250339508057	1708
13.130249261856079	1750
13.135242938995361	1675
13.140231847763062	1683
13.145267009735107	1755
13.1502845287323	1700
13.155185461044312	1659
13.160175561904907	1737
13.165277481079102	1737
13.170235872268677	1665
13.175221920013428	1714
13.180292129516602	1752
13.185359001159668	1672
13.190271139144897	1684
13.195330142974854	1759
13.200263023376465	1704
13.205263137817383	1664
13.210262775421143	1740
13.215301513671875	1735
13.220319032669067	1660
13.225151777267456	1714
13.23012638092041	1760
13.235044717788696	1676
13.240121841430664	1681
13.245144128799438	1756
13.25025987625122	1697
13.255186080932617	1654
13.260202407836914	1729
13.265238523483276	1721
13.270153284072876	1640
13.275127172470093	1695
13.280147314071655	1739
13.285152912139893	1660
13.290050745010376	1663
13.294999361038208	1738
13.299975872039795	1686
13.305026769638062	1636
13.310127019882202	1710
13.315205574035645	1705
13.320207834243774	1627
13.325205326080322	1677
13.33021068572998	1723
13.335217952728271	1645
13.340122938156128	1644
13.345207691192627	1715
13.350207567214966	1662
13.355237007141113	1621
13.360233306884766	1694
13.365148782730103	1691
13.370146036148071	1612
13.375054121017456	1662
13.38000202178955	1709
13.384981393814087	1631
13.38995909690857	1628
13.394914627075195	1709
13.399962186813354	1669
13.404910802841187	1607
13.409895896911621	1674
13.414907693862915	1686
13.419978618621826	1605
13.424952268600464	1646
13.429991245269775	1694
13.434908151626587	1617
13.439855575561523	1609
13.444855451583862	1688
13.44985818862915	1650
13.454829216003418	1593
13.459835290908813	1661
13.464879751205444	1665
13.469963550567627	1587
13.474886655807495	1636
13.479936599731445	1683
13.485026597976685	1604
13.490030765533447	1597
13.495028972625732	1673
13.500049114227295	1628
13.504981756210327	1567
13.50995421409607	1637
13.514886617660522	1649
13.519936084747314	1569
13.52492618560791	1606
13.530030727386475	1652
13.534974336624146	1576
13.539886713027954	1563
13.544883489608765	1649
13.549917936325073	1628
13.554883003234863	1572
13.560029029846191	1622
13.56505036354065	1629
13.570032835006714	1565
13.5750572681427	1620
13.580013751983643	1677
13.585011720657349	1596
13.589962720870972	1582
13.594958066940308	1657
13.599911212921143	1618
13.604913473129272	1563
13.60991907119751	1631
13.614861249923706	1645
13.619810819625854	1566
13.624751806259155	1600
13.629728555679321	1659
13.634735107421875	1584
13.639710664749146	1559
13.644684076309204	1548
13.649803400039673	1268
13.654873132705688	899
13.659762144088745	771
13.664713859558105	814
13.669628381729126	744
13.674500703811646	594
13.679433584213257	629
13.684377431869507	1157
13.689368963241577	2006
13.694382667541504	2609
13.699410676956177	2173
13.704360961914062	1552
13.709310531616211	1548
13.71435832977295	1694
13.719345092773438	1600
13.724359273910522	1549
13.72944450378418	1600
13.73445987701416	1557
13.739533185958862	1529
13.744478940963745	1590
13.749491930007935	1560
13.754488229751587	1491
13.75948166847229	1553
13.764533758163452	1574
13.76953387260437	1484
13.77450704574585	1501
13.77963638305664	1563
13.784683465957642	1492
13.789724349975586	1464
13.7946617603302	1534
13.799707174301147	1499
13.804638385772705	1422
13.809640884399414	1482
13.814611196517944	1504
13.819604635238647	1417
13.824646472930908	1439
13.829647779464722	1492
13.834640979766846	1408
13.839580535888672	1374
13.844579458236694	1450
13.849604845046997	1419
13.85464596748352	1337
13.85969591140747	1391
13.864771842956543	1407
13.869758129119873	1317
13.874755620956421	1331
13.879770517349243	1385
13.884796619415283	1307
13.889816761016846	1289
13.894777774810791	1373
13.899823188781738	1345
13.904841661453247	1287
13.90976595878601	1359
13.914660930633545	1397
13.91967511177063	1325
13.924696445465088	1373
13.929698944091797	1469
13.934822082519531	1439
13.939944744110107	1458
13.944909811019897	1578
13.9499032497406	1588
13.954922914505005	1561
13.959973812103271	1662
13.965067625045776	1710
13.970035791397095	1650
13.97500205039978	1702
13.97997498512268	1772
13.98498821258545	1710
13.990029573440552	1698
13.995030164718628	1785
13.999993324279785	1759
14.004902839660645	1698
14.009958028793335	1764
14.014926195144653	1783
14.019903898239136	1696
14.024882793426514	1727
14.029858112335205	1789
14.03492546081543	1713
14.039927959442139	1688
14.04489541053772	1763
14.049951553344727	1731
14.05493950843811	1661
14.059865236282349	1724
14.064922332763672	1746
14.069953441619873	1660
14.07492971420288	1684
14.079878807067871	1742
14.084959983825684	1676
14.09007453918457	1655
14.095040082931519	1732
14.099974632263184	1697
14.105011940002441	1638
14.109988927841187	1708
14.114925861358643	1729
14.11992621421814	1646
14.124826192855835	1673
14.12977933883667	1740
14.135015964508057	1677
14.140013694763184	1662
14.145096063613892	1737
14.15009617805481	1700
14.155068397521973	1642
14.160056829452515	1713
14.16498351097107	1731
14.16999363899231	1646
14.17509651184082	1681
14.180132150650024	1745
14.185114860534668	1673
14.190024137496948	1651
14.1950204372406	1723
14.200027227401733	1695
14.20496916770935	1639
14.210006952285767	1710
14.214993476867676	1736
14.219996213912964	1647
14.224996566772461	1675
14.229975938796997	1738
14.23500919342041	1671
14.239991426467896	1647
14.245029926300049	1727
14.249986171722412	1699
14.254955291748047	1636
14.26001763343811	1702
14.264989614486694	1726
14.269980669021606	1646
14.274954795837402	1665
14.279873132705688	1718
14.28488802909851	1661
14.289888620376587	1639
14.294932842254639	1710
14.299885749816895	1678
14.304825782775879	1618
14.309852600097656	1680
14.314917087554932	1707
14.31982707977295	1622
14.324822664260864	1650
14.329825401306152	1718
14.334959983825684	1646
14.339954853057861	1619
14.344913721084595	1704
14.349860191345215	1682
14.35488247871399	1607
14.359843492507935	1671
14.364898920059204	1701
14.36983609199524	1609
14.374919652938843	1621
14.379944562911987	1689
14.384824991226196	1621
14.389842510223389	1576
14.3949613571167	1652
14.399944305419922	1640
14.404989242553711	1594
14.41003942489624	1665
14.41507601737976	1678
14.420105695724487	1583
14.425088882446289	1607
14.430039167404175	1682
14.435060024261475	1617
14.440077781677246	1606
14.445077419281006	1693
14.450055837631226	1660
14.455084323883057	1589
14.46005916595459	1654
14.465095520019531	1682
14.470049619674683	1598
14.475067138671875	1623
14.480091571807861	1684
14.4851655960083	1620
14.490208864212036	1605
14.495202779769897	1677
14.500234365463257	1629
14.505247592926025	1546
14.510251760482788	1473
14.515250205993652	1239
14.520227432250977	881
14.525020837783813	735
14.529943943023682	844
14.534852504730225	843
14.539697885513306	669
14.544670343399048	754
14.54959487915039	1404
14.554621934890747	2236
14.55955696105957	2617
14.564610004425049	2089
14.569594860076904	1526
14.574689865112305	1569
14.579787492752075	1745
14.58482027053833	1646
14.58973240852356	1548
14.594705581665039	1617
14.5996572971344	1623
14.604673624038696	1549
14.609710216522217	1598
14.614689111709595	1629
14.619708776473999	1545
14.624645471572876	1550
14.62974500656128	1614
14.63472843170166	1553
14.63971734046936	1512
14.644726514816284	1586
14.649688005447388	1568
14.654751300811768	1488
14.659774780273438	1540
14.66474986076355	1572
14.669748783111572	1483
14.674658298492432	1485
14.679731130599976	1546
14.684798240661621	1481
14.689826488494873	1436
14.694931030273438	1508
14.699875831604004	1485
14.704952716827393	1404
14.7099289894104	1454
14.714871883392334	1477
14.719902038574219	1385
14.72489881515503	1386
14.72989010810852	1438
14.73485803604126	1373
14.739908933639526	1333
14.7448570728302	1410
14.74971866607666	1389
14.75487995147705	1303
14.759889364242554	1361
14.76492953300476	1403
14.769929647445679	1326
14.774986028671265	1348
14.779977560043335	1432
14.784959316253662	1388
14.790020227432251	1385
14.79505181312561	1495
14.800072193145752	1515
14.804978370666504	1495
14.810021877288818	1603
14.814998865127563	1669
14.8200204372406	1627
14.825001955032349	1685
14.830084323883057	1782
14.835076808929443	1738
14.840063571929932	1723
14.845047950744629	1812
14.850016355514526	1801
14.855060338973999	1734
14.860137701034546	1795
14.865087985992432	1821
14.870073556900024	1741
14.875094652175903	1774
14.880073547363281	1839
14.885102987289429	1778
14.8901207447052	1746
14.895108461380005	1822
14.900139093399048	1801
14.905102014541626	1730
14.910052061080933	1791
14.91512942314148	1821
14.920199871063232	1736
14.92509412765503	1751
14.930077314376831	1819
14.935070276260376	1755
14.94005012512207	1714
14.945098161697388	1789
14.950104236602783	1767
14.955125570297241	1694
14.96010971069336	1754
14.965110778808594	1782
14.970073461532593	1688
14.975071907043457	1711
14.980068683624268	1780
14.985121726989746	1715
14.990055799484253	1684
14.995025873184204	1757
15.000035047531128	1739
15.005020141601562	1672
15.010020971298218	1734
15.015125513076782	1766
15.02009916305542	1682
15.025051832199097	1698
15.030051231384277	1768
15.03504729270935	1706
15.040035247802734	1677
15.045078992843628	1759
15.050062894821167	1741
15.055025100708008	1664
15.059997797012329	1722
15.065021514892578	1762
15.070037126541138	1682
15.075032711029053	1692
15.080004692077637	1759
15.084964752197266	1703
15.089937448501587	1670
15.09498405456543	1749
15.100000381469727	1731
15.105038404464722	1655
15.110044956207275	1717
15.115065813064575	1752
15.120123386383057	1670
15.125122785568237	1686
15.130157232284546	1753
15.135234594345093	1695
15.140270948410034	1666
15.14531421661377	1740
15.150330543518066	1716
15.155287504196167	1645
15.16025686264038	1706
15.165269136428833	1744
15.170174837112427	1663
15.175325632095337	1676
15.180326700210571	1744
15.185284614562988	1682
15.190278053283691	1656
15.195328712463379	1733
15.200278520584106	1703
15.20524549484253	1631
15.210256099700928	1693
15.21522831916809	1728
15.220356464385986	1645
15.225337266921997	1671
15.230534791946411	1732
15.235532522201538	1664
15.240435361862183	1642
15.245483875274658	1716
15.25055980682373	1679
15.25557017326355	1608
15.260658740997314	1670
15.265761137008667	1692
15.270753860473633	1608
15.27579951286316	1652
15.280770301818848	1721
15.2857985496521	1641
15.290729522705078	1604
15.295684099197388	1683
15.300625562667847	1672
15.305724143981934	1619
15.310649633407593	1683
15.315722465515137	1696
15.320811986923218	1609
15.325853109359741	1644
15.330865383148193	1698
15.335854768753052	1624
15.34095811843872	1613
15.345933675765991	1687
15.350960493087769	1645
15.355886697769165	1582
15.36091423034668	1657
15.365900754928589	1665
15.37090277671814	1573
15.375961303710938	1522
15.380958080291748	1327
15.386026859283447	929
15.390850305557251	697
15.395710945129395	817
15.4006507396698	939
15.405488967895508	785
15.410473108291626	764
15.41543173789978	1242
15.420425176620483	1945
15.425420999526978	2543
15.43040132522583	2290
15.435450315475464	1639
15.440467357635498	1487
15.445436477661133	1668
15.450406074523926	1648
15.455379247665405	1525
15.460290670394897	1572
15.465295314788818	1621
15.470254898071289	1543
15.475264549255371	1549
15.48029613494873	1608
15.485323905944824	1544
15.490283012390137	1504
15.495270729064941	1581
15.500296831130981	1559
15.505305290222168	1477
15.510344743728638	1531
15.515257835388184	1561
15.520281791687012	1476
15.525267601013184	1488
15.530324697494507	1545
15.53531789779663	1481
15.540380001068115	1440
15.54547643661499	1505
15.55040955543518	1482
15.555432558059692	1405
15.56045126914978	1458
15.565418243408203	1477
15.57043170928955	1382
15.575366735458374	1387
15.580315589904785	1445
15.585243225097656	1370
15.590301990509033	1320
15.595274448394775	1391
15.600278854370117	1369
15.605248928070068	1279
15.61024522781372	1322
15.615243434906006	1352
15.620233058929443	1261
15.625149726867676	1272
15.630253314971924	1348
15.635167121887207	1292
15.640199661254883	1259
15.645339012145996	1349
15.650136709213257	1357
15.655123949050903	1302
15.66018033027649	1385
15.665148258209229	1470
15.670121908187866	1443
15.675038576126099	1503
15.680089235305786	1625
15.685130834579468	1611
15.690091848373413	1607
15.695158958435059	1713
15.7001793384552	1730
15.70514702796936	1668
15.710176229476929	1735
15.715196371078491	1783
15.720281600952148	1708
15.725206851959229	1723
15.7301504611969	1800
15.735121488571167	1748
15.740075588226318	1709
15.745098114013672	1784
15.750198602676392	1773
15.755305290222168	1692
15.760261058807373	1744
15.765320301055908	1784
15.7702796459198	1698
15.775278806686401	1703
15.780328273773193	1767
15.785340547561646	1707
15.790322303771973	1668
15.795342922210693	1742
15.800368785858154	1732
15.805334091186523	1654
15.810302019119263	1706
15.815404176712036	1739
15.820308923721313	1655
15.825316429138184	1669
15.830287456512451	1736
15.835337162017822	1681
15.840323448181152	1645
15.845398664474487	1720
15.850335597991943	1707
15.855400562286377	1629
15.860342264175415	1690
15.865350008010864	1733
15.870351552963257	1650
15.875313758850098	1661
15.880378723144531	1737
15.88536262512207	1683
15.890244007110596	1643
15.895273685455322	1714
15.900317668914795	1704
15.905239343643188	1635
15.910301685333252	1689
15.915213108062744	1725
15.92035436630249	1646
15.92531156539917	1663
15.930457592010498	1734
15.935478210449219	1668
15.940606355667114	1626
15.945493698120117	1701
15.950514316558838	1688
15.955431938171387	1621
15.96040391921997	1681
15.96545672416687	1712
15.970476388931274	1626
15.97545599937439	1644
15.9805006980896	1719
15.985551595687866	1656
15.990549325942993	1615
15.995582342147827	1691
16.000609636306763	1677
16.005569458007812	1608
16.01056957244873	1667
16.015634298324585	1696
16.020676136016846	1603
16.025652408599854	1625
16.03064274787903	1693
16.035698175430298	1626
16.04073452949524	1587
16.045785188674927	1668
16.0506591796875	1656
16.05570077896118	1584
16.06075119972229	1639
16.06575918197632	1662
16.07079768180847	1583
16.075780391693115	1610
16.08076500892639	1679
16.085731744766235	1609
16.090704679489136	1573
16.095778226852417	1650
16.10074496269226	1635
16.10577702522278	1566
16.110755443572998	1625
16.11566972732544	1658
16.120704650878906	1574
16.12578535079956	1596
16.130753755569458	1661
16.135801792144775	1598
16.14069151878357	1570
16.14569616317749	1647
16.15075659751892	1624
16.155733346939087	1554
16.160714149475098	1618
16.165700435638428	1648
16.170729875564575	1566
16.175731420516968	1584
16.18077778816223	1648
16.185790061950684	1586
16.19078516960144	1556
16.19576668739319	1628
16.200764417648315	1605
16.20576024055481	1525
16.21073341369629	1574
16.21578860282898	1597
16.220866680145264	1511
16.225820302963257	1531
16.230780601501465	1584
16.23580837249756	1502
16.24083113670349	1480
16.245924472808838	1595
16.250897645950317	1590
16.255845546722412	1505
16.260781049728394	1553
16.265758514404297	1589
16.270729303359985	1522
16.275707960128784	1548
16.280704736709595	1621
16.285704851150513	1563
16.290756464004517	1531
16.29576277732849	1617
16.300694227218628	1595
16.305831909179688	1518
16.310949563980103	1573
16.315979957580566	1602
16.320985317230225	1522
16.32594919204712	1549
16.330888748168945	1622
16.335855722427368	1559
16.340797901153564	1519
16.34583830833435	1577
16.350840091705322	1390
16.35577368736267	1019
16.36076807975769	781
16.365620374679565	718
16.370494842529297	731
16.375465869903564	735
16.38045048713684	637
16.3853657245636	754
16.39017963409424	1363
16.39515519142151	2242
16.400306940078735	2474
16.405348777770996	1850
16.410194396972656	1490
16.415163040161133	1553
16.42013382911682	1543
16.42510151863098	1513
16.430129051208496	1547
16.435176134109497	1506
16.440156936645508	1470
16.4450945854187	1541
16.450151205062866	1536
16.455104112625122	1452
16.46016788482666	1494
16.465092420578003	1536
16.470101356506348	1456
16.47512197494507	1442
16.480073928833008	1515
16.485061168670654	1467
16.490040063858032	1409
16.49496102333069	1477
16.50002121925354	1483
16.50498342514038	1390
16.510000467300415	1417
16.514873504638672	1463
16.519845247268677	1383
16.524786472320557	1362
16.529744625091553	1437
16.534754753112793	1395
16.539697408676147	1319
16.54460096359253	1375
16.549626350402832	1389
16.554678440093994	1293
16.559706449508667	1313
16.56472396850586	1360
16.56968069076538	1278
16.574713706970215	1247
16.579654216766357	1318
16.584731101989746	1283
16.589757680892944	1208
16.594741582870483	1273
16.599769592285156	1299
16.604863166809082	1218
16.60987424850464	1255
16.61484956741333	1324
16.61982488632202	1266
16.624882221221924	1269
16.629957675933838	1379
16.634904384613037	1371
16.639934539794922	1350
16.64490270614624	1468
16.650015354156494	1529
16.655088424682617	1492
16.659972667694092	1571
16.66499376296997	1666
16.670011520385742	1620
16.675007343292236	1628
16.68007469177246	1726
16.68510150909424	1707
16.69022274017334	1660
16.695207118988037	1735
16.7001211643219	1749
16.705172061920166	1677
16.710172414779663	1720
16.715276956558228	1773
16.720237731933594	1697
16.725178956985474	1689
16.730135679244995	1766
16.735164642333984	1725
16.740297079086304	1664
16.745277881622314	1736
16.75026559829712	1743
16.755151987075806	1656
16.760121822357178	1701
16.76507258415222	1759
16.770074367523193	1683
16.775062084197998	1666
16.780109643936157	1742
16.7851619720459	1702
16.790143728256226	1648
16.7951922416687	1715
16.80030131340027	1720
16.805268049240112	1640
16.81029176712036	1684
16.815290212631226	1735
16.82030749320984	1661
16.825335025787354	1661
16.830308198928833	1738
16.835299968719482	1696
16.840292930603027	1645
16.84534764289856	1722
16.850278854370117	1731
16.855246543884277	1648
16.860349893569946	1698
16.865349531173706	1753
16.870335817337036	1671
16.875328302383423	1669
16.880262851715088	1753
16.88532543182373	1716
16.890347003936768	1660
16.895347356796265	1736
16.900346994400024	1750
16.905396699905396	1669
16.910438060760498	1711
16.915376901626587	1764
16.920439958572388	1686
16.925536155700684	1687
16.930511713027954	1763
16.935513734817505	1719
16.94048523902893	1673
16.94543147087097	1745
16.950376272201538	1748
16.95545983314514	1668
16.96045708656311	1714
16.965489387512207	1764
16.970425605773926	1686
16.975400924682617	1682
16.98041844367981	1762
16.985413789749146	1724
16.99036407470703	1669
16.9953715801239	1738
17.00037431716919	1738
17.005411624908447	1663
17.010406970977783	1707
17.015406131744385	1755
17.02033543586731	1676
17.025423765182495	1669
17.03040647506714	1749
17.03543448448181	1706
17.04047966003418	1652
17.04552984237671	1722
17.050530672073364	1727
17.0555317401886	1656
17.060585260391235	1701
17.06558394432068	1744
17.070533275604248	1666
17.075618743896484	1670
17.08061122894287	1746
17.08564305305481	1698
17.0906400680542	1648
17.095683574676514	1717
17.10063934326172	1727
17.10563635826111	1652
17.11063575744629	1697
17.115636110305786	1749
17.12062430381775	1673
17.125632286071777	1672
17.13060235977173	1746
17.135603666305542	1696
17.140642166137695	1647
17.14562964439392	1724
17.15058970451355	1728
17.155567407608032	1648
17.160555124282837	1696
17.165529489517212	1745
17.17058515548706	1659
17.17556118965149	1651
17.18067169189453	1714
17.185654163360596	1662
17.190673351287842	1610
17.195701837539673	1688
17.200735807418823	1678
17.205727100372314	1584
17.210804224014282	1634
17.215826988220215	1709
17.22086000442505	1659
17.225836038589478	1654
17.230836868286133	1706
17.235811948776245	1658
17.240777015686035	1631
17.2458279132843	1719
17.25069785118103	1716
17.255815982818604	1640
17.260786294937134	1700
17.26577377319336	1749
17.270890474319458	1665
17.275885343551636	1670
17.280889987945557	1744
17.285938262939453	1691
17.290966749191284	1648
17.295939922332764	1724
17.300963640213013	1723
17.305882692337036	1643
17.310960292816162	1690
17.3159396648407	1721
17.32093596458435	1528
17.325940370559692	1267
17.330936670303345	1033
17.335962533950806	801
17.34086036682129	799
17.345834016799927	913
17.35065197944641	766
17.35563063621521	726
17.36056137084961	1368
17.365649461746216	2257
17.370609045028687	2605
17.375582456588745	2143
17.380558013916016	1708
17.385584115982056	1627
17.390591859817505	1658
17.39565873146057	1713
17.400623559951782	1672
17.405582666397095	1586
17.410677433013916	1645
17.415661573410034	1690
17.4206805229187	1606
17.42575740814209	1595
17.430731296539307	1668
17.435768604278564	1616
17.44075918197632	1559
17.44573712348938	1629
17.450782775878906	1629
17.455763816833496	1544
17.46070694923401	1582
17.465685606002808	1623
17.470662832260132	1540
17.47568392753601	1528
17.480711936950684	1596
17.485740900039673	1552
17.49063754081726	1493
17.495656490325928	1550
17.500664472579956	1548
17.505682945251465	1463
17.51066303253174	1502
17.515746593475342	1542
17.52071213722229	1451
17.525686264038086	1435
17.530707597732544	1496
17.535812854766846	1436
17.5408353805542	1375
17.545860528945923	1440
17.5508873462677	1434
17.555888891220093	1352
17.560880422592163	1394
17.565882205963135	1437
17.57088828086853	1350
17.575885772705078	1347
17.580937147140503	1434
17.586058139801025	1391
17.590999841690063	1353
17.596073627471924	1452
17.601073265075684	1473
17.60613226890564	1416
17.611260890960693	1505
17.616201877593994	1593
17.6212420463562	1559
17.62623429298401	1605
17.631133556365967	1713
17.63613724708557	1693
17.6410710811615	1679
17.646061182022095	1779
17.651056051254272	1801
17.656105518341064	1734
17.66110634803772	1794
17.666129112243652	1837
17.671234607696533	1755
17.67626452445984	1771
17.681267499923706	1848
17.686305284500122	1786
17.6913104057312	1741
17.69630527496338	1821
17.701301336288452	1813
17.706248998641968	1726
17.71125817298889	1776
17.716256856918335	1817
17.72129535675049	1728
17.726287603378296	1731
17.731287717819214	1802
17.736363172531128	1751
17.74136233329773	1711
17.746331453323364	1776
17.75131106376648	1757
17.756336212158203	1683
17.76136565208435	1739
17.7665057182312	1775
17.771564483642578	1693
17.776514291763306	1706
17.781588792800903	1770
17.786761045455933	1697
17.79184055328369	1672
17.796940088272095	1756
17.80198621749878	1733
17.80691957473755	1660
17.811927556991577	1722
17.816923141479492	1749
17.821887493133545	1668
17.82689094543457	1691
17.831918478012085	1751
17.836889505386353	1689
17.84180450439453	1669
17.846773624420166	1749
17.851780891418457	1725
17.856799364089966	1657
17.86178183555603	1714
17.866797924041748	1741
17.871822834014893	1663
17.87680959701538	1687
17.881839990615845	1750
17.886946201324463	1679
17.891930103302002	1657
17.896974802017212	1734
17.901960372924805	1707
17.90699863433838	1641
17.912044763565063	1706
17.916974306106567	1723
17.922003507614136	1639
17.927098989486694	1668
17.93208646774292	1731
17.93716263771057	1658
17.94214367866516	1638
17.94711470603943	1720
17.952090740203857	1690
17.95717692375183	1620
17.962130784988403	1684
17.96705198287964	1704
17.972105503082275	1622
17.97715735435486	1651
17.98207664489746	1713
17.987180709838867	1638
17.992125749588013	1613
17.99720549583435	1695
18.002245664596558	1666
18.007254362106323	1600
18.01223397254944	1662
18.01726984977722	1680
18.022217273712158	1596
18.027130365371704	1628
18.032209873199463	1679
18.03724455833435	1609
18.042346477508545	1595
18.047481536865234	1672
18.052547931671143	1632
18.057507753372192	1579
18.06253147125244	1647
18.06750464439392	1648
18.072561979293823	1562
18.077571630477905	1595
18.08254623413086	1635
18.08756113052368	1554
18.092561721801758	1539
18.09759020805359	1608
18.10258388519287	1554
18.107601404190063	1495
18.112578868865967	1592
18.1175799369812	1628
18.12261176109314	1539
18.127575159072876	1563
18.13252329826355	1621
18.137561559677124	1560
18.142667293548584	1553
18.147730588912964	1625
18.15276312828064	1580
18.15778875350952	1541
18.16290020942688	1622
18.167956113815308	1613
18.172972440719604	1531
18.17795991897583	1586
18.182907581329346	1636
18.18788719177246	1553
18.192862272262573	1548
18.197840213775635	1622
18.202863216400146	1578
18.207904815673828	1525
18.21293878555298	1585
18.21788763999939	1488
18.22297167778015	1167
18.227916955947876	940
18.232884168624878	772
18.237778425216675	672
18.242665767669678	714
18.247528076171875	705
18.252441883087158	581
18.257346391677856	994
18.262227296829224	1934
18.267253398895264	2598
18.272234678268433	2154
18.277308464050293	1572
18.28233051300049	1532
18.287297248840332	1592
18.292258501052856	1563
18.29728412628174	1560
18.30229687690735	1508
18.307294130325317	1467
18.312340021133423	1548
18.317293882369995	1552
18.32225799560547	1453
18.32728147506714	1483
18.33233118057251	1540
18.3373761177063	1466
18.342421293258667	1444
18.347487688064575	1514
18.352513790130615	1470
18.357484102249146	1402
18.3624324798584	1467
18.367398977279663	1485
18.372446537017822	1395
18.37746286392212	1423
18.382460594177246	1464
18.387511014938354	1379
18.392508029937744	1353
18.397531270980835	1430
18.402551889419556	1393
18.407483339309692	1320
18.41249394416809	1375
18.417513132095337	1383
18.422460556030273	1288
18.427433013916016	1307
18.432433605194092	1355
18.437458038330078	1276
18.44254779815674	1241
18.44751477241516	1306
18.45256733894348	1267
18.457533597946167	1198
18.462584733963013	1260
18.467632055282593	1274
18.472748041152954	1192
18.47770857810974	1235
18.482707262039185	1301
18.487656116485596	1242
18.49268078804016	1240
18.497657537460327	1327
18.502696752548218	1319
18.507638931274414	1311
18.512633562088013	1433
18.517584562301636	1495
18.522621870040894	1450
18.52764868736267	1522
18.532636404037476	1618
18.53761100769043	1585
18.542556524276733	1597
18.547587394714355	1689
18.552551984786987	1667
18.557511806488037	1614
18.562541246414185	1690
18.5675151348114	1718
18.57243537902832	1637
18.577458381652832	1668
18.582435131072998	1724
18.587400436401367	1658
18.592449188232422	1640
18.59751558303833	1715
18.60251784324646	1681
18.607508659362793	1612
18.61253261566162	1676
18.617475986480713	1698
18.622525215148926	1618
18.62751865386963	1647
18.632540225982666	1697
18.63748598098755	1624
18.642510175704956	1611
18.64756727218628	1689
18.65257740020752	1651
18.65751361846924	1580
18.662641286849976	1649
18.66769504547119	1669
18.672704458236694	1585
18.677708864212036	1615
18.68271565437317	1666
18.687753200531006	1598
18.692750215530396	1584
18.697784423828125	1664
18.702755451202393	1623
18.70773720741272	1567
18.71275782585144	1637
18.71770930290222	1651
18.722734451293945	1575
18.727758169174194	1612
18.732709407806396	1668
18.73773169517517	1596
18.74272394180298	1582
18.747740268707275	1661
18.752717971801758	1627
18.757734298706055	1566
18.762709140777588	1637
18.767734050750732	1661
18.772798538208008	1583
18.77779531478882	1615
18.78281879425049	1662
18.787801265716553	1591
18.79280972480774	1581
18.79788589477539	1657
18.802873134613037	1618
18.807875156402588	1559
18.812921285629272	1634
18.817951440811157	1643
18.822905778884888	1563
18.827939987182617	1604
18.832911729812622	1658
18.83792543411255	1582
18.843042135238647	1576
18.848031282424927	1653
18.85308527946472	1607
18.858031749725342	1551
18.86305522918701	1627
18.86809468269348	1636
18.87311887741089	1554
18.87810754776001	1595
18.88316321372986	1641
18.888132572174072	1569
18.893129587173462	1564
18.898128509521484	1636
18.903259992599487	1588
18.908252000808716	1541
18.913103580474854	1610
18.91808009147644	1616
18.923104763031006	1537
18.928054332733154	1573
18.9330792427063	1624
18.9380943775177	1552
18.943079710006714	1547
18.948029279708862	1620
18.953043937683105	1578
18.957993507385254	1516
18.963061332702637	1581
18.96808624267578	1584
18.973010540008545	1494
18.978028774261475	1532
18.983031272888184	1575
18.98806929588318	1488
18.993271112442017	1498
18.998314380645752	1611
19.003355264663696	1577
19.008342742919922	1501
19.01334810256958	1559
19.01845932006836	1571
19.023502588272095	1514
19.02847719192505	1568
19.03362727165222	1605
19.038613319396973	1530
19.043606519699097	1546
19.048651695251465	1619
19.05362296104431	1567
19.058619499206543	1528
19.06364679336548	1608
19.068687438964844	1600
19.0736825466156	1521
19.07865071296692	1578
19.083645343780518	1626
19.08864712715149	1547
19.093729496002197	1538
19.098730087280273	1589
19.103666305541992	1381
19.10873556137085	1055
19.113734483718872	841
19.118569135665894	703
19.12346363067627	722
19.12846612930298	872
19.133333683013916	797
19.1382315158844	781
19.143125295639038	1391
19.148081064224243	2280
19.153120517730713	2510
19.158113479614258	1903
19.16315507888794	1531
19.16813063621521	1562
19.17311120033264	1563
19.178086757659912	1571
19.1831271648407	1574
19.188111543655396	1502
19.19306182861328	1507
19.19799280166626	1583
19.20302104949951	1539
19.20801615715027	1473
19.213058710098267	1539
19.217990398406982	1557
19.222902536392212	1472
19.227888345718384	1494
19.232887029647827	1548
19.237940549850464	1472
19.242889404296875	1445
19.24787187576294	1518
19.252838373184204	1485
19.2577645778656	1414
19.26281213760376	1473
19.26784348487854	1493
19.272850036621094	1398
19.277957916259766	1419
19.282978773117065	1473
19.28810477256775	1400
19.29304051399231	1370
19.29804253578186	1435
19.303003072738647	1397
19.308009386062622	1325
19.312992572784424	1380
19.317980766296387	1387
19.322937965393066	1289
19.327969312667847	1306
19.333044052124023	1356
19.33804154396057	1277
19.343066453933716	1252
19.348110914230347	1327
19.35311460494995	1293
19.358059644699097	1232
19.36308193206787	1303
19.36806011199951	1336
19.373034954071045	1262
19.378069400787354	1310
19.383156538009644	1400
19.38818621635437	1372
19.39334464073181	1392
19.398240089416504	1515
19.403209686279297	1529
19.408299922943115	1517
19.41331148147583	1630
19.41831636428833	1683
19.423343181610107	1634
19.42832326889038	1701
19.4333279132843	1776
19.438288927078247	1716
19.443286895751953	1712
19.448166131973267	1794
19.453160047531128	1760
19.45819640159607	1703
19.463212490081787	1779
19.468210697174072	1795
19.473212957382202	1714
19.47817850112915	1754
19.48317813873291	1809
19.488138914108276	1731
19.49311590194702	1712
19.4980685710907	1789
19.503045082092285	1753
19.507983684539795	1691
19.512986183166504	1758
19.51795268058777	1772
19.52301597595215	1679
19.52800750732422	1708
19.53303813934326	1772
19.538039922714233	1696
19.54300284385681	1676
19.5479998588562	1755
19.553043842315674	1727
19.558041095733643	1662
19.563057899475098	1719
19.568088054656982	1737
19.573009490966797	1655
19.578086614608765	1695
19.583067655563354	1754
19.58811593055725	1678
19.59312629699707	1663
19.598097562789917	1745
19.603184700012207	1711
19.608161449432373	1647
19.613134384155273	1719
19.618167400360107	1743
19.623173713684082	1659
19.628204345703125	1696
19.633152961730957	1755
19.638214111328125	1681
19.643322229385376	1667
19.648318767547607	1748
19.653303861618042	1710
19.658284187316895	1651
19.6632821559906	1718
19.66826558113098	1741
19.67330026626587	1657
19.678214073181152	1697
19.68327498435974	1750
19.688337326049805	1676
19.69334053993225	1662
19.69829297065735	1739
19.703264474868774	1705
19.708343267440796	1646
19.7133891582489	1713
19.718345403671265	1732
19.72341752052307	1647
19.728434801101685	1681
19.73351788520813	1736
19.738547563552856	1664
19.743540287017822	1654
19.748586654663086	1731
19.753741979599	1681
19.758710145950317	1631
19.763719081878662	1707
19.768770456314087	1706
19.77387571334839	1626
19.778898000717163	1676
19.783897638320923	1718
19.788914918899536	1640
19.793877840042114	1639
19.798771381378174	1719
19.80375599861145	1672
19.80873417854309	1621
19.81376576423645	1694
19.818787813186646	1698
19.823716640472412	1617
19.82871699333191	1661
19.833725929260254	1709
19.838720083236694	1626
19.843741178512573	1626
19.848777055740356	1705
19.853795766830444	1659
19.858793258666992	1605
19.863767385482788	1675
19.86877703666687	1685
19.873739004135132	1608
19.87871026992798	1650
19.883646249771118	1691
19.8886239528656	1613
19.89371395111084	1602
19.898659229278564	1676
19.90376377105713	1622
19.908793449401855	1557
19.913747787475586	1627
19.91875410079956	1633
19.923826932907104	1544
19.928773880004883	1568
19.933769464492798	1612
19.938767671585083	1562
19.943777799606323	1588
19.948697805404663	1662
19.95373225212097	1597
19.95881962776184	1536
19.96386218070984	1629
19.96889042854309	1655
19.973864793777466	1575
19.978865385055542	1624
19.98387360572815	1679
19.988900184631348	1605
19.99390172958374	1606
19.998932361602783	1676
20.003915071487427	1628
20.008988857269287	1581
20.01403832435608	1655
20.018986701965332	1653
20.023946285247803	1574
20.028856992721558	1622
20.033873558044434	1670
20.038983583450317	1581
20.04390025138855	1527
20.048825979232788	1394
20.0538067817688	1053
20.05877923965454	721
20.063698768615723	748
20.06860113143921	887
20.07343077659607	769
20.078322887420654	642
20.083311557769775	989
20.088093757629395	1659
20.093100547790527	2378
20.09812641143799	2464
20.103124618530273	1851
20.108070135116577	1467
20.11306667327881	1592
20.11818289756775	1673
20.123175859451294	1553
20.12812900543213	1544
20.133297204971313	1613
20.138193368911743	1554
20.14314556121826	1520
20.148146390914917	1584
20.153143167495728	1560
20.158167600631714	1488
20.16318917274475	1550
20.168189764022827	1571
20.173267602920532	1484
20.178330659866333	1498
20.183330297470093	1561
20.18826937675476	1494
20.19321084022522	1456
20.198116302490234	1523
20.203304052352905	1494
20.208200454711914	1421
20.21323323249817	1470
20.218310594558716	1497
20.223245859146118	1406
20.22824263572693	1421
20.233249187469482	1472
20.23827862739563	1397
20.24325728416443	1365
20.24824857711792	1433
20.253307580947876	1396
20.25830316543579	1309
20.263298273086548	1361
20.268301963806152	1378
20.27325201034546	1287
20.278244495391846	1300
20.283249616622925	1356
20.288195848464966	1287
20.29328417778015	1255
20.298306226730347	1337
20.303306579589844	1316
20.308244705200195	1249
20.31316590309143	1322
20.318196535110474	1370
20.323301792144775	1302
20.32837200164795	1356
20.333452224731445	1452
20.338523387908936	1423
20.343522548675537	1453
20.348544120788574	1580
20.353543758392334	1593
20.358630657196045	1572
20.36363935470581	1674
20.36865758895874	1719
20.373597621917725	1665
20.378597259521484	1719
20.38362145423889	1786
20.388683080673218	1716
20.393628358840942	1706
20.398735523223877	1790
20.40373182296753	1758
20.408703565597534	1701
20.4136745929718	1773
20.418713092803955	1789
20.42383646965027	1699
20.428831815719604	1736
20.433903455734253	1790
20.438897848129272	1709
20.44395637512207	1698
20.448988676071167	1772
20.454054594039917	1722
20.459076642990112	1668
20.46406078338623	1742
20.469098567962646	1747
20.4741268157959	1665
20.47920060157776	1708
20.484182119369507	1750
20.4891414642334	1672
20.49408984184265	1670
20.49911141395569	1745
20.50417399406433	1699
20.509124517440796	1646
20.51406955718994	1719
20.519078254699707	1731
20.524089574813843	1648
20.52909803390503	1689
20.533957719802856	1744
20.538965463638306	1666
20.543988943099976	1663
20.54908323287964	1737
20.55406355857849	1690
20.5590238571167	1641
20.56399703025818	1716
20.568916082382202	1728
20.573959350585938	1643
20.579112768173218	1682
20.58414340019226	1739
20.58910036087036	1668
20.594067096710205	1659
20.599115133285522	1735
20.604025840759277	1696
20.609092473983765	1643
20.614194631576538	1715
20.619109630584717	1715
20.62410545349121	1634
20.62915587425232	1684
20.63425636291504	1737
20.63930058479309	1652
20.64432716369629	1654
20.649307250976562	1730
20.65433120727539	1685
20.6593234539032	1632
20.664320707321167	1701
20.669326066970825	1705
20.674336433410645	1629
20.679335117340088	1673
20.68431544303894	1716
20.689321279525757	1637
20.69430637359619	1638
20.69934391975403	1719
20.704285383224487	1667
20.709402084350586	1616
20.714354753494263	1686
20.719306468963623	1687
20.724306344985962	1612
20.72930669784546	1660
20.734196186065674	1702
20.739261388778687	1616
20.744248628616333	1613
20.749282360076904	1696
20.754282474517822	1649
20.759265661239624	1600
20.76426911354065	1667
20.769367933273315	1674
20.77435278892517	1594
20.779326915740967	1640
20.784372091293335	1686
20.7893226146698	1608
20.79430603981018	1602
20.799307346343994	1674
20.804251194000244	1629
20.809369802474976	1580
20.814358711242676	1656
20.819389581680298	1653
20.82432723045349	1573
20.82935619354248	1618
20.834352493286133	1664
20.83940076828003	1582
20.844388961791992	1569
20.849284648895264	1634
20.854322910308838	1592
20.859365701675415	1543
20.864242792129517	1606
20.869252920150757	1591
20.874253749847412	1500
20.879174947738647	1563
20.884164810180664	1653
20.889158010482788	1587
20.89420509338379	1560
20.899165868759155	1627
20.90418553352356	1596
20.9091215133667	1558
20.914183139801025	1631
20.91917395591736	1642
20.92419409751892	1565
20.92918634414673	1613
20.934181213378906	1668
20.939308404922485	1592
20.9441819190979	1581
20.94917345046997	1658
20.954254388809204	1614
20.95932912826538	1560
20.964301347732544	1628
20.9693124294281	1640
20.97431206703186	1562
20.979333639144897	1591
20.984334230422974	1606
20.989382028579712	1356
20.994333028793335	1064
20.999235153198242	853
21.004221439361572	716
21.009173154830933	735
21.014074325561523	804
21.019026279449463	675
21.02389669418335	770
21.02873134613037	1492
21.033735275268555	2344
21.0388023853302	2463
21.043784141540527	1878
21.04872727394104	1563
21.053776264190674	1564
21.058686017990112	1561
21.06369376182556	1588
21.068639516830444	1567
21.07363772392273	1490
21.07870602607727	1536
21.083698987960815	1595
21.08885669708252	1515
21.09390902519226	1491
21.098938465118408	1566
21.103895902633667	1531
21.108880043029785	1458
21.113883018493652	1519
21.118800163269043	1543
21.12378430366516	1455
21.128833532333374	1473
21.13395881652832	1525
21.13897156715393	1450
21.143906116485596	1426
21.1488995552063	1500
21.153887033462524	1467
21.15888285636902	1394
21.163965225219727	1453
21.169036388397217	1462
21.174075841903687	1371
21.179102420806885	1392
21.18402123451233	1437
21.18905234336853	1352
21.194052934646606	1327
21.199025630950928	1395
21.204023122787476	1350
21.208978414535522	1279
21.213907957077026	1336
21.21886444091797	1340
21.223885536193848	1251
21.22892451286316	1278
21.233896017074585	1345
21.238863468170166	1275
21.243881702423096	1246
21.248861074447632	1336
21.253809452056885	1318
21.25875425338745	1262
21.263888120651245	1345
21.26888656616211	1400
21.273802995681763	1344
21.2787766456604	1409
21.283776998519897	1517
21.288798093795776	1499
21.293843030929565	1518
21.298765420913696	1634
21.303781747817993	1646
21.308757543563843	1611
21.31378436088562	1693
21.318811893463135	1738
21.323803901672363	1667
21.328773260116577	1705
21.333718061447144	1779
21.338714838027954	1717
21.343679428100586	1687
21.348680019378662	1769
21.35363221168518	1754
21.3586368560791	1689
21.36366367340088	1752
21.368682622909546	1777
21.37367868423462	1688
21.378633499145508	1713
21.38363218307495	1782
21.388606309890747	1712
21.393608570098877	1674
21.39865779876709	1757
21.40363335609436	1738
21.408658027648926	1658
21.413726568222046	1709
21.418681859970093	1741
21.423734426498413	1660
21.428794622421265	1679
21.433769464492798	1739
21.438687086105347	1673
21.443578243255615	1647
21.448683261871338	1733
21.45370364189148	1713
21.458682537078857	1638
21.463780403137207	1701
21.46875786781311	1739
21.47380542755127	1660
21.478803634643555	1680
21.48377823829651	1741
21.488771677017212	1677
21.493754625320435	1650
21.49873185157776	1728
21.50368618965149	1707
21.50875997543335	1641
21.51379680633545	1707
21.51875901222229	1737
21.523728370666504	1652
21.528706550598145	1673
21.533657550811768	1742
21.53859305381775	1678
21.543611764907837	1649
21.548558473587036	1733
21.55353879928589	1718
21.558568954467773	1645
21.5634446144104	1701
21.568432092666626	1740
21.573543310165405	1662
21.578481197357178	1672
21.583415508270264	1742
21.588442087173462	1684
21.593486785888672	1648
21.598514080047607	1721
21.603594303131104	1712
21.608635187149048	1638
21.61358070373535	1695
21.61857318878174	1725
21.623596668243408	1644
21.62857151031494	1661
21.63359498977661	1734
21.638667583465576	1677
21.64364528656006	1635
21.648552179336548	1710
21.653602600097656	1696
21.6585795879364	1626
21.66352677345276	1678
21.66854190826416	1708
21.673681497573853	1622
21.678613424301147	1639
21.683626651763916	1710
21.688674926757812	1651
21.6936936378479	1618
21.698631525039673	1691
21.703665733337402	1672
21.708690881729126	1600
21.71366047859192	1659
21.718773126602173	1691
21.723822116851807	1607
21.728859901428223	1624
21.73380184173584	1686
21.738818407058716	1615
21.743816137313843	1577
21.74888825416565	1647
21.753907203674316	1623
21.758867502212524	1554
21.763876914978027	1608
21.76879596710205	1614
21.77379035949707	1527
21.778928756713867	1574
21.78389883041382	1671
21.788938760757446	1602
21.794004201889038	1557
21.79899024963379	1630
21.803937435150146	1624
21.809012174606323	1571
21.81400156021118	1642
21.81902575492859	1668
21.824068069458008	1581
21.82901430130005	1614
21.83399510383606	1681
21.839052438735962	1613
21.84408211708069	1586
21.84906768798828	1666
21.854006052017212	1637
21.85893988609314	1569
21.864027738571167	1636
21.869077682495117	1665
21.874101638793945	1576
21.879116773605347	1586
21.884049654006958	1572
21.88896894454956	1287
21.893954515457153	992
21.898837089538574	833
21.903788089752197	761
21.90868330001831	747
21.913615226745605	755
21.91855025291443	673
21.92337727546692	944
21.928276777267456	1782
21.933311939239502	2604
21.9382905960083	2383
21.94330382347107	1691
21.948314428329468	1560
21.953357934951782	1682
21.958340167999268	1628
21.963337659835815	1599
21.968337297439575	1607
21.973329305648804	1543
21.978271007537842	1555
21.98325753211975	1618
21.988216400146484	1561
21.99323844909668	1508
21.998283624649048	1583
22.003366470336914	1585
22.008274793624878	1496
22.0131938457489	1534
22.01826047897339	1583
22.0232892036438	1496
22.02822232246399	1491
22.033222198486328	1557
22.03820562362671	1501
22.04315185546875	1443
22.04814600944519	1508
22.053192138671875	1510
22.058107376098633	1421
22.063108921051025	1462
22.068257093429565	1507
22.073200225830078	1418
22.07813262939453	1401
22.083093404769897	1464
22.088144063949585	1409
22.093156099319458	1348
22.098081350326538	1415
22.10313391685486	1415
22.10816264152527	1316
22.113168716430664	1346
22.118166208267212	1387
22.12332797050476	1297
22.12835717201233	1294
22.13333559036255	1376
22.138278245925903	1330
22.143317222595215	1282
22.148340225219727	1364
22.15343475341797	1369
22.158443212509155	1300
22.163439989089966	1371
22.168459177017212	1450
22.173532009124756	1405
22.17850947380066	1443
22.1835618019104	1563
22.188635110855103	1554
22.19367265701294	1557
22.19861626625061	1677
22.203655242919922	1707
22.208619594573975	1654
22.213717222213745	1726
22.21877694129944	1783
22.223790884017944	1714
22.22871470451355	1740
22.23371648788452	1813
22.238699674606323	1760
22.24371337890625	1725
22.248683214187622	1800
22.253729104995728	1798
22.25866985321045	1732
22.263651371002197	1783
22.268648862838745	1815
22.27369451522827	1728
22.278706789016724	1736
22.28370499610901	1805
22.28869366645813	1749
22.293749570846558	1712
22.298705339431763	1788
22.303643465042114	1779
22.308716535568237	1693
22.313679695129395	1744
22.318679809570312	1787
22.32365107536316	1712
22.328578233718872	1713
22.333588123321533	1786
22.33864402770996	1735
22.343648672103882	1690
22.348690032958984	1755
22.353686332702637	1749
22.358624696731567	1680
22.363590002059937	1733
22.368568420410156	1775
22.373497486114502	1696
22.378570556640625	1705
22.383565664291382	1772
22.38858199119568	1712
22.393590927124023	1675
22.398590087890625	1752
22.403570652008057	1748
22.40856695175171	1672
22.4135525226593	1721
22.418532133102417	1762
22.42361354827881	1687
22.42855739593506	1691
22.433608293533325	1767
22.43867540359497	1715
22.443594932556152	1673
22.44853401184082	1745
22.453580856323242	1745
22.45860195159912	1671
22.463617086410522	1725
22.468750953674316	1766
22.473683834075928	1688
22.47861957550049	1694
22.48359203338623	1758
22.488598346710205	1707
22.493637800216675	1667
22.498706817626953	1751
22.503732204437256	1739
22.50869393348694	1655
22.513635635375977	1711
22.518678426742554	1755
22.52374577522278	1676
22.52874732017517	1687
22.53383755683899	1754
22.53882122039795	1695
22.543756008148193	1655
22.548678874969482	1730
22.553714513778687	1720
22.558704614639282	1644
22.56365418434143	1700
22.568685293197632	1741
22.573657274246216	1657
22.578553438186646	1660
22.58355450630188	1733
22.588576078414917	1680
22.593570709228516	1631
22.598562479019165	1708
22.60361647605896	1707
22.608635187149048	1632
22.613714694976807	1678
22.618725538253784	1711
22.623758792877197	1625
22.628753900527954	1624
22.63374376296997	1689
22.638774633407593	1626
22.64377188682556	1568
22.64877200126648	1641
22.653820991516113	1671
22.658824920654297	1621
22.663827896118164	1658
22.66882061958313	1672
22.67386555671692	1597
22.6789231300354	1625
22.683823108673096	1706
22.688772201538086	1657
22.69379997253418	1621
22.6988205909729	1701
22.703795433044434	1698
22.708762884140015	1618
22.71381402015686	1668
22.718793869018555	1705
22.723764181137085	1626
22.72876739501953	1634
22.733709812164307	1705
22.7387912273407	1649
22.743906259536743	1611
22.74887466430664	1675
22.75390648841858	1641
22.758928775787354	1450
22.763930320739746	1255
22.76886487007141	1024
22.773862838745117	740
22.77883219718933	769
22.783731937408447	978
22.78861689567566	879
22.79351782798767	734
22.798378705978394	1270
22.803418397903442	2117
22.808412551879883	2557
22.81343364715576	2204
22.818432092666626	1698
22.823357105255127	1537
22.82840847969055	1647
22.833443641662598	1714
22.83836603164673	1596
22.84345769882202	1525
22.848458528518677	1620
22.85351824760437	1631
22.858466625213623	1538
22.86351442337036	1570
22.868547677993774	1616
22.87354350090027	1538
22.878530502319336	1532
22.883522033691406	1595
22.888492107391357	1549
22.89345145225525	1496
22.898499488830566	1562
22.903494358062744	1564
22.908478498458862	1477
22.913466453552246	1509
22.91846513748169	1554
22.923466205596924	1477
22.928524017333984	1461
22.933500289916992	1529
22.938499212265015	1477
22.943458080291748	1417
22.948368549346924	1477
22.953330516815186	1473
22.95831823348999	1378
22.963319301605225	1410
22.968341827392578	1457
22.973267316818237	1369
22.97829794883728	1339
22.98321533203125	1405
22.988293886184692	1355
22.993374824523926	1291
22.998380184173584	1359
23.00337243080139	1366
23.00833559036255	1279
23.013390064239502	1326
23.018452405929565	1382
23.023414850234985	1307
23.02844548225403	1306
23.03347659111023	1397
23.038419485092163	1377
23.043443202972412	1352
23.048471212387085	1463
23.053478956222534	1515
23.058465003967285	1478
23.06338667869568	1566
23.06833052635193	1660
23.07340908050537	1623
23.078445196151733	1648
23.083536386489868	1755
23.088570833206177	1734
23.093507289886475	1699
23.098545789718628	1785
23.103519678115845	1798
23.10859489440918	1719
23.113680601119995	1771
23.118674993515015	1819
23.12367296218872	1746
23.128647327423096	1748
23.133538722991943	1816
23.138567686080933	1770
23.14360284805298	1720
23.148597478866577	1783
23.15362286567688	1783
23.158597946166992	1703
23.16360831260681	1747
23.16854977607727	1792
23.173523664474487	1714
23.178591012954712	1703
23.183622121810913	1776
23.188624620437622	1736
23.193580389022827	1679
23.19849467277527	1749
23.20347261428833	1755
23.2085177898407	1673
23.213504314422607	1713
23.21854543685913	1764
23.223487854003906	1690
23.22849702835083	1684
23.233519315719604	1764
23.23860001564026	1720
23.243496656417847	1662
23.24853539466858	1737
23.25352120399475	1750
23.258564949035645	1668
23.263565063476562	1712
23.268578052520752	1764
23.27364158630371	1685
23.2786066532135	1680
23.283636331558228	1756
23.28864812850952	1718
23.293669939041138	1672
23.298744440078735	1742
23.30376386642456	1744
23.3087317943573	1665
23.313751935958862	1717
23.318771600723267	1761
23.323771238327026	1682
23.3288836479187	1682
23.333868980407715	1756
23.338855981826782	1705
23.34380054473877	1657
23.348822116851807	1733
23.353872776031494	1731
23.358872413635254	1654
23.36402130126953	1707
23.36914038658142	1748
23.374099493026733	1666
23.37906813621521	1672
23.383968114852905	1741
23.38900351524353	1689
23.39406728744507	1645
23.399035215377808	1721
23.404070377349854	1711
23.409085988998413	1635
23.414136171340942	1688
23.41908884048462	1725
23.424089431762695	1645
23.429113149642944	1654
23.434115409851074	1727
23.43913245201111	1670
23.44409418106079	1627
23.44899272918701	1702
23.454097509384155	1692
23.45909333229065	1615
23.464043855667114	1670
23.468950271606445	1708
23.473926782608032	1627
23.478949546813965	1634
23.483892917633057	1710
23.48903751373291	1653
23.49404525756836	1616
23.49905514717102	1690
23.504091501235962	1680
23.509190559387207	1604
23.514345169067383	1655
23.51934003829956	1678
23.52434730529785	1588
23.529322385787964	1593
23.534245014190674	1657
23.53929877281189	1595
23.5443012714386	1545
23.549301385879517	1609
23.554346561431885	1613
23.55932331085205	1577
23.564295768737793	1639
23.56930947303772	1651
23.57430648803711	1555
23.579346418380737	1586
23.584407091140747	1673
23.589390993118286	1618
23.594371557235718	1579
23.599345207214355	1661
23.604398250579834	1653
23.609428882598877	1584
23.614454746246338	1646
23.619473457336426	1674
23.624469995498657	1590
23.62952494621277	1609
23.634440183639526	1673
23.639500617980957	1608
23.644578218460083	1583
23.649603366851807	1665
23.654611349105835	1634
23.6596040725708	1522
23.66463041305542	1389
23.669597625732422	1128
23.674573183059692	762
23.679544925689697	696
23.684419870376587	904
23.689237117767334	899
23.6940598487854	702
23.69896411895752	951
23.70390558242798	1629
23.708871841430664	2307
23.713989973068237	2478
23.71894907951355	1973
23.72388744354248	1514
23.7288339138031	1538
23.733928680419922	1679
23.739013195037842	1595
23.74405550956726	1510
23.74905800819397	1586
23.754122495651245	1595
23.75917673110962	1516
23.76420569419861	1562
23.769147634506226	1595
23.774107217788696	1511
23.779079914093018	1507
23.784054279327393	1575
23.78904414176941	1521
23.79416847229004	1474
23.799188375473022	1543
23.80415439605713	1530
23.809112787246704	1448
23.81411385536194	1493
23.819077253341675	1524
23.824092388153076	1437
23.829206466674805	1437
23.83419704437256	1506
23.83919358253479	1439
23.84416151046753	1383
23.849238634109497	1448
23.854299068450928	1431
23.85929822921753	1347
23.864327669143677	1388
23.86933922767639	1419
23.874316930770874	1318
23.879345893859863	1314
23.884294748306274	1379
23.88934874534607	1308
23.894299030303955	1250
23.89938259124756	1321
23.90432071685791	1311
23.90927815437317	1235
23.914265394210815	1284
23.91920566558838	1329
23.924169301986694	1253
23.929336547851562	1265
23.934282302856445	1349
23.93932867050171	1309
23.944352626800537	1292
23.94944953918457	1401
23.954464435577393	1434
23.95946455001831	1409
23.964413166046143	1517
23.96941566467285	1593
23.974400758743286	1551
23.979460954666138	1600
23.984466314315796	1706
23.9894278049469	1676
23.99449324607849	1655
23.999491930007935	1745
24.00447368621826	1739
24.00951075553894	1673
24.014507055282593	1738
24.019505739212036	1778
24.024545907974243	1699
24.029521465301514	1716
24.034518003463745	1782
24.039599180221558	1716
24.044650554656982	1687
24.049577474594116	1767
24.054587841033936	1744
24.05961775779724	1671
24.064640760421753	1730
24.069602727890015	1761
24.07457971572876	1673
24.07965922355652	1687
24.08467745780945	1754
24.08972406387329	1692
24.09477186203003	1665
24.099820613861084	1739
24.104828596115112	1715
24.109795570373535	1647
24.114848375320435	1705
24.119898319244385	1729
24.124870777130127	1643
24.12987446784973	1673
24.13487458229065	1738
24.139904499053955	1669
24.144943237304688	1645
24.14997386932373	1719
24.154926300048828	1690
24.15995192527771	1626
24.164998054504395	1696
24.16999864578247	1717
24.175007820129395	1637
24.180003881454468	1666
24.184922456741333	1728
24.18995761871338	1663
24.195015907287598	1643
24.200026035308838	1721
24.205039024353027	1692
24.21007251739502	1630
24.215038776397705	1701
24.219928979873657	1721
24.22492480278015	1638
24.229965925216675	1664
24.234888076782227	1725
24.240026235580444	1659
24.24497413635254	1640
24.24989938735962	1718
24.25495147705078	1685
24.260039806365967	1621
24.265026330947876	1688
24.270050525665283	1711
24.275058031082153	1624
24.280083179473877	1651
24.284920930862427	1710
24.290045499801636	1641
24.295101404190063	1621
24.300095319747925	1703
24.3050479888916	1672
24.310044050216675	1602
24.31502103805542	1659
24.319984436035156	1690
24.325016736984253	1609
24.330040454864502	1637
24.335028648376465	1698
24.33994174003601	1631
24.344895601272583	1607
