0.0003559589385986328	1632
0.0005495548248291016	1685
0.0007185935974121094	1746
0.0008814334869384766	1649
0.0010445117950439453	1645
0.0012083053588867188	1738
0.0013709068298339844	1687
0.0015347003936767578	1632
0.0016970634460449219	1722
0.0018596649169921875	1726
0.0020215511322021484	1630
0.0021855831146240234	1685
0.0023474693298339844	1747
0.0025103092193603516	1658
0.0027081966400146484	1659
0.0028722286224365234	1750
0.003034830093383789	1693
0.0031969547271728516	1636
0.003357410430908203	1731
0.003519773483276367	1747
0.0036797523498535156	1661
0.0038404464721679688	1719
0.004002571105957031	1775
0.004164457321166992	1681
0.004326581954956055	1684
0.0044879913330078125	1777
0.00464940071105957	1707
0.004812955856323242	1616
0.004971742630004883	1682
0.005130767822265625	1691
0.005288124084472656	1615
0.0054531097412109375	1677
0.005616664886474609	1729
0.00577998161315918	1577
0.0059626102447509766	1435
0.007565736770629883	1887
0.012511730194091797	1742
0.01751852035522461	1370
0.022537708282470703	1736
0.02750706672668457	1858
0.03255772590637207	1361
0.037645578384399414	1513
0.04268383979797363	1873
0.04766273498535156	1502
0.052613258361816406	1394
0.05764651298522949	1845
0.06263923645019531	1682
0.06762957572937012	1306
0.07262420654296875	1686
0.0776069164276123	1821
0.0826420783996582	1339
0.08765792846679688	1493
0.0926821231842041	1864
0.0976862907409668	1476
0.10260581970214844	1315
0.10759806632995605	1749
0.11257219314575195	1506
0.11754679679870605	915
0.12247824668884277	1042
0.1274707317352295	1080
0.13244032859802246	689
0.13732242584228516	984
0.14226961135864258	1427
0.1473076343536377	1217
0.15227770805358887	1414
0.15729737281799316	2423
0.1622474193572998	2490
0.16730260848999023	1541
0.17220187187194824	1478
0.17722368240356445	1692
0.1821904182434082	1315
0.18733453750610352	1408
0.19232988357543945	1770
0.19727134704589844	1432
0.2022724151611328	1251
0.207275390625	1700
0.21225380897521973	1614
0.21728014945983887	1209
0.2223038673400879	1544
0.22728610038757324	1726
0.2322864532470703	1263
0.2373058795928955	1350
0.24231314659118652	1742
0.24730443954467773	1407
0.25233006477355957	1223
0.2573418617248535	1659
0.26236391067504883	1557
0.26738572120666504	1165
0.272402286529541	1503
0.2773911952972412	1667
0.2823328971862793	1203
0.28733110427856445	1291
0.2923905849456787	1675
0.29735755920410156	1327
0.302382230758667	1144
0.307422399520874	1590
0.3124971389770508	1472
0.3174426555633545	1072
0.32236528396606445	1415
0.327470064163208	1584
0.33243370056152344	1114
0.3375697135925293	1229
0.34259581565856934	1612
0.34761571884155273	1247
0.352614164352417	1100
0.3576085567474365	1563
0.36255788803100586	1443
0.36754894256591797	1063
0.3726027011871338	1438
0.37754321098327637	1607
0.3825085163116455	1154
0.3874800205230713	1297
0.3924868106842041	1710
0.39745545387268066	1389
0.40247201919555664	1254
0.4074840545654297	1745
0.4124455451965332	1666
0.417402982711792	1300
0.42235255241394043	1672
0.42739295959472656	1870
0.43240880966186523	1419
0.4374876022338867	1550
0.44250011444091797	1941
0.44748735427856445	1584
0.4524357318878174	1418
0.4575202465057373	1879
0.46253466606140137	1755
0.4674801826477051	1366
0.47249770164489746	1729
0.4775886535644531	1883
0.4826083183288574	1417
0.48767900466918945	1566
0.49271249771118164	1936
0.4976944923400879	1549
0.50274658203125	1416
0.5077359676361084	1876
0.5127370357513428	1721
0.5176835060119629	1350
0.522733211517334	1731
0.5277009010314941	1868
0.5326967239379883	1402
0.5377144813537598	1557
0.5428445339202881	1914
0.547832727432251	1512
0.5528309345245361	1407
0.5578234195709229	1869
0.5628247261047363	1705
0.5678150653839111	1339
0.5728349685668945	1733
0.5778024196624756	1864
0.5827634334564209	1398
0.5877685546875	1560
0.5927677154541016	1925
0.5977482795715332	1541
0.6027274131774902	1410
0.6076555252075195	1887
0.61264967918396	1766
0.6177113056182861	1380
0.6227035522460938	1761
0.6276636123657227	1906
0.6326367855072021	1429
0.637580156326294	1577
0.64261794090271	1953
0.6476306915283203	1544
0.6526806354522705	1374
0.6576352119445801	1840
0.662625789642334	1705
0.6676523685455322	1317
0.6727309226989746	1714
0.6777229309082031	1870
0.6826877593994141	1382
0.6876869201660156	1520
0.6926403045654297	1896
0.6976101398468018	1518
0.7026269435882568	1352
0.7076354026794434	1822
0.7126028537750244	1699
0.717665433883667	1293
0.7226824760437012	1654
0.7276675701141357	1789
0.7327880859375	1246
0.737828254699707	1205
0.7427787780761719	1354
0.7477638721466064	781
0.7526779174804688	637
0.7576045989990234	1333
0.7626433372497559	1279
0.767704963684082	938
0.7727110385894775	1671
0.7776813507080078	2376
0.782677173614502	2171
0.7876899242401123	1834
0.792757511138916	1782
0.7977304458618164	1356
0.8027453422546387	1287
0.8077623844146729	1780
0.812859058380127	1605
0.8178369998931885	1217
0.822847843170166	1612
0.8278324604034424	1749
0.8327820301055908	1263
0.8378658294677734	1428
0.8428852558135986	1799
0.8478841781616211	1392
0.8528811931610107	1264
0.8579034805297852	1733
0.8628795146942139	1560
0.8679401874542236	1189
0.8729703426361084	1583
0.8779833316802979	1693
0.8829882144927979	1202
0.8879563808441162	1385
0.8929886817932129	1753
0.8979942798614502	1342
0.9029865264892578	1209
0.9079523086547852	1675
0.9130311012268066	1495
0.9180524349212646	1122
0.9230730533599854	1527
0.9280970096588135	1621
0.9331233501434326	1128
0.9381144046783447	1320
0.9430985450744629	1675
0.9480960369110107	1247
0.9530866146087646	1138
0.9580986499786377	1616
0.9630675315856934	1421
0.9681003093719482	1056
0.972998857498169	1478
0.9780473709106445	1606
0.9831366539001465	1110
0.9881553649902344	1327
0.9931766986846924	1701
0.9983034133911133	1268
1.003258228302002	1200
1.0081470012664795	1703
1.0131523609161377	1517
1.0182111263275146	1186
1.0231735706329346	1660
1.0281341075897217	1792
1.0331082344055176	1325
1.0380373001098633	1550
1.0429720878601074	1941
1.0480024814605713	1527
1.052976131439209	1434
1.0579283237457275	1928
1.062971830368042	1762
1.0679521560668945	1383
1.0729222297668457	1802
1.078003168106079	1930
1.0830845832824707	1418
1.087930679321289	1613
1.0929069519042969	1996
1.097898244857788	1574
1.1029245853424072	1444
1.1079285144805908	1935
1.1130497455596924	1743
1.1180148124694824	1364
1.12302565574646	1791
1.1280865669250488	1905
1.1331369876861572	1391
1.1381888389587402	1611
1.1431934833526611	1967
1.1481952667236328	1527
1.153120517730713	1432
1.1580936908721924	1927
1.1631863117218018	1713
1.1681935787200928	1342
1.1731948852539062	1788
1.1782422065734863	1883
1.1831989288330078	1384
1.1882047653198242	1622
1.1933457851409912	1971
1.1984138488769531	1509
1.203383207321167	1469
1.2084193229675293	1953
1.2134480476379395	1695
1.2184162139892578	1366
1.2234668731689453	1851
1.228454351425171	1913
1.2333884239196777	1415
1.2383842468261719	1672
1.2433996200561523	2002
1.2484080791473389	1536
1.2534222602844238	1497
1.2584052085876465	1992
1.263383388519287	1715
1.2683286666870117	1342
1.2733752727508545	1802
1.2783653736114502	1868
1.2832789421081543	1362
1.2882795333862305	1628
1.2933175563812256	1977
1.2983171939849854	1495
1.3033168315887451	1428
1.3082776069641113	1929
1.3133268356323242	1684
1.318345069885254	1324
1.323425531387329	1786
1.3285040855407715	1859
1.3334977626800537	1338
1.338507890701294	1602
1.343513011932373	1916
1.3484723567962646	1401
1.3535232543945312	1187
1.3584938049316406	1452
1.3635752201080322	962
1.3683960437774658	583
1.37331223487854	1238
1.3781635761260986	1437
1.3831863403320312	931
1.3881666660308838	1409
1.3932647705078125	2305
1.3981943130493164	2329
1.4032654762268066	1899
1.4082090854644775	1880
1.4132153987884521	1516
1.4181945323944092	1202
1.4232456684112549	1714
1.428189992904663	1817
1.433075189590454	1280
1.4380738735198975	1479
1.4429824352264404	1880
1.4480409622192383	1442
1.4529857635498047	1298
1.4581272602081299	1810
1.4630582332611084	1634
1.4680039882659912	1220
1.4730441570281982	1641
1.4780914783477783	1778
1.4831953048706055	1252
1.488074541091919	1444
1.493065595626831	1838
1.4980015754699707	1395
1.5029590129852295	1255
1.5079596042633057	1764
1.5130605697631836	1574
1.5181083679199219	1167
1.523080825805664	1595
1.5280473232269287	1721
1.533048152923584	1188
1.5380630493164062	1373
1.5430147647857666	1774
1.548041582107544	1325
1.5530874729156494	1185
1.5581908226013184	1695
1.5630772113800049	1493
1.56801438331604	1080
1.5731115341186523	1515
1.5781855583190918	1659
1.5831878185272217	1126
1.5881762504577637	1345
1.5931851863861084	1741
1.5981969833374023	1288
1.6033010482788086	1187
1.6084132194519043	1716
1.6134088039398193	1494
1.618349552154541	1131
1.6233513355255127	1613
1.6283810138702393	1732
1.6334364414215088	1233
1.638418197631836	1520
1.643460988998413	1917
1.6484863758087158	1462
1.6534943580627441	1436
1.6584861278533936	1968
1.6634061336517334	1732
1.6683464050292969	1380
1.6733477115631104	1858
1.6782910823822021	1960
1.6832849979400635	1432
1.6882810592651367	1667
1.693312406539917	2048
1.6983115673065186	1578
1.7032580375671387	1482
1.7082757949829102	1999
1.7131528854370117	1790
1.718170404434204	1385
1.7231817245483398	1837
1.7282109260559082	1947
1.7331857681274414	1416
1.7381501197814941	1627
1.743185043334961	2023
1.7481451034545898	1572
1.753140926361084	1449
1.758089303970337	1963
1.763206958770752	1768
1.7681424617767334	1367
1.7730507850646973	1802
1.7780725955963135	1948
1.7830731868743896	1411
1.7880663871765137	1603
1.7930798530578613	2019
1.7979888916015625	1578
1.803037166595459	1428
1.8080756664276123	1958
1.813119888305664	1770
1.8180789947509766	1362
1.8231275081634521	1801
1.828115463256836	1947
1.8330769538879395	1407
1.8381738662719727	1617
1.8431313037872314	2026
1.848130226135254	1574
1.8531749248504639	1440
1.8581876754760742	1960
1.8631539344787598	1778
1.8681728839874268	1376
1.8731765747070312	1842
1.8781239986419678	1984
1.883199691772461	1428
1.888225793838501	1639
1.8932428359985352	2044
1.8981404304504395	1594
1.9031152725219727	1452
1.9081120491027832	1951
1.9132177829742432	1729
1.9182407855987549	1321
1.923201560974121	1787
1.9283175468444824	1906
1.93330717086792	1379
1.9381740093231201	1601
1.9432082176208496	1992
1.9481861591339111	1512
1.9532055854797363	1405
1.9581732749938965	1929
1.9633502960205078	1712
1.9683499336242676	1312
1.973341941833496	1777
1.9783644676208496	1885
1.9833543300628662	1341
1.9883759021759033	1540
1.9932560920715332	1876
1.998183250427246	1219
2.0032098293304443	838
2.008082628250122	1173
2.0131468772888184	998
2.0179309844970703	725
2.0228195190429688	1204
2.027834892272949	1497
2.032886028289795	1280
2.0379390716552734	1978
2.042879104614258	2813
2.0479512214660645	1995
2.052945852279663	1275
2.0579006671905518	1702
2.0629875659942627	1651
2.0679800510406494	1264
2.073005437850952	1681
2.0780582427978516	1823
2.082998752593994	1281
2.0879671573638916	1464
2.09295916557312	1895
2.097879409790039	1444
2.10284161567688	1256
2.1078288555145264	1809
2.112792730331421	1668
2.1178476810455322	1190
2.1228346824645996	1615
2.127781629562378	1818
2.1327755451202393	1254
2.137829065322876	1390
2.1428065299987793	1850
2.147726058959961	1416
2.152724504470825	1204
2.1577064990997314	1750
2.162709951400757	1620
2.1677536964416504	1132
2.1727261543273926	1555
2.177708148956299	1766
2.182739496231079	1192
2.187716007232666	1316
2.1927101612091064	1786
2.197690963745117	1357
2.2027769088745117	1144
2.2077579498291016	1696
2.212905168533325	1526
2.2179343700408936	1060
2.2229855060577393	1529
2.228055238723755	1684
2.2330052852630615	1134
2.2379212379455566	1330
2.242920160293579	1776
2.2479703426361084	1325
2.25303316116333	1184
2.2580208778381348	1745
2.2631354331970215	1559
2.2681190967559814	1155
2.2731189727783203	1640
2.2781989574432373	1777
2.2832281589508057	1281
2.2882614135742188	1555
2.2932817935943604	1952
2.2982304096221924	1511
2.3032329082489014	1455
2.3082447052001953	1981
2.3133130073547363	1758
2.318305730819702	1416
2.323180913925171	1856
2.3281044960021973	1949
2.3330986499786377	1463
2.338097333908081	1691
2.343118906021118	2023
2.348083972930908	1591
2.353114128112793	1515
2.358139991760254	1979
2.363050699234009	1772
2.3681881427764893	1430
2.3731584548950195	1848
2.3782548904418945	1915
2.383277416229248	1454
2.388240337371826	1678
2.3931474685668945	1986
2.398071527481079	1567
2.4030723571777344	1501
2.4080989360809326	1951
2.4130666255950928	1741
2.4180424213409424	1416
2.423004150390625	1816
2.4279885292053223	1907
2.432990550994873	1447
2.437981605529785	1652
2.44294810295105	1991
2.4479522705078125	1584
2.452970266342163	1489
2.458026647567749	1944
2.463017702102661	1752
2.468017578125	1425
2.4730722904205322	1832
2.478022813796997	1909
2.4829626083374023	1449
2.487928628921509	1656
2.49296498298645	1994
2.497936487197876	1587
2.5030126571655273	1506
2.5080511569976807	1964
2.51310658454895	1765
2.518048048019409	1439
2.5230236053466797	1845
2.528020143508911	1918
2.5330684185028076	1460
2.5380451679229736	1694
2.543048858642578	2038
2.548085927963257	1611
2.5530507564544678	1543
2.5580756664276123	1981
2.563058614730835	1764
2.568143129348755	1461
2.573159694671631	1882
2.578300952911377	1872
2.583334445953369	1389
2.588379383087158	1681
2.5933406352996826	1958
2.59830904006958	1515
2.603309154510498	1523
2.608344554901123	1960
2.6133625507354736	1674
2.618361234664917	1394
2.6232826709747314	1832
2.628260374069214	1837
2.633237361907959	1376
2.6382837295532227	1655
2.6433234214782715	1928
2.6483516693115234	1472
2.653351068496704	1481
2.6583774089813232	1888
2.6633501052856445	1506
2.6684062480926514	1039
2.6733524799346924	1255
2.6783878803253174	1046
2.683361053466797	594
2.6882524490356445	1020
2.6932625770568848	1352
2.6982555389404297	1108
2.70324969291687	1650
2.7081756591796875	2689
2.7132089138031006	2541
2.7181832790374756	1667
2.723182439804077	1680
2.7281837463378906	1743
2.7331666946411133	1411
2.7381410598754883	1614
2.7431845664978027	1797
2.7481579780578613	1418
2.7531585693359375	1453
2.7581582069396973	1827
2.7630996704101562	1567
2.768063545227051	1318
2.7730612754821777	1708
2.77799654006958	1722
2.7830018997192383	1331
2.788076639175415	1553
2.792977809906006	1792
2.7979800701141357	1424
2.8029532432556152	1391
2.807924270629883	1753
2.812877655029297	1561
2.817952871322632	1298
2.8229079246520996	1658
2.827903985977173	1691
2.8329238891601562	1314
2.837979793548584	1505
2.8429813385009766	1720
2.848010778427124	1371
2.8530333042144775	1377
2.8580410480499268	1725
2.862966537475586	1506
2.867987632751465	1257
2.872990369796753	1587
2.8779075145721436	1603
2.882946491241455	1233
2.8879635334014893	1429
2.892944574356079	1664
2.897963047027588	1334
2.903008460998535	1328
2.908050775527954	1660
2.913130283355713	1453
2.918149471282959	1261
2.9231269359588623	1617
2.9280807971954346	1612
2.9331815242767334	1265
2.938363790512085	1511
2.943279504776001	1725
2.9483096599578857	1425
2.9533870220184326	1492
2.958301544189453	1829
2.96333384513855	1629
2.968327283859253	1489
2.973372459411621	1842
2.978393316268921	1828
2.9834072589874268	1528
2.988375425338745	1775
2.9934287071228027	1951
2.9983670711517334	1614
3.0034093856811523	1679
3.008437156677246	1991
3.01340651512146	1728
3.0184547901153564	1571
3.0233571529388428	1917
3.028355121612549	1859
3.0334296226501465	1544
3.038409471511841	1821
3.043405294418335	1957
3.0484025478363037	1581
3.0533559322357178	1661
3.058354616165161	1981
3.0633389949798584	1700
3.0683867931365967	1558
3.0733466148376465	1934
3.0783579349517822	1834
3.0833380222320557	1505
3.088336944580078	1813
3.09333872795105	1967
3.0983059406280518	1565
3.1033341884613037	1666
3.108344316482544	1999
3.1134345531463623	1676
3.1184332370758057	1560
3.1235997676849365	1962
3.12856388092041	1816
3.133568048477173	1484
3.1385679244995117	1846
3.1435046195983887	1968
3.1485037803649902	1555
3.1534793376922607	1702
3.1585052013397217	2013
3.1635496616363525	1673
3.1686840057373047	1591
3.1737358570098877	1981
3.1786348819732666	1826
3.1836888790130615	1534
3.1887378692626953	1878
3.193711519241333	1956
3.1986536979675293	1601
3.2036540508270264	1753
3.208590507507324	2003
3.2136154174804688	1701
3.2186436653137207	1641
3.223660707473755	1977
3.2286365032196045	1820
3.2336630821228027	1532
3.2385573387145996	1816
3.2436344623565674	1896
3.248617172241211	1572
3.2535994052886963	1705
3.258510112762451	1924
3.2635865211486816	1651
3.2686657905578613	1587
3.2736785411834717	1881
3.2788028717041016	1742
3.283782482147217	1522
3.2887473106384277	1773
3.293710947036743	1833
3.2987492084503174	1561
3.303736686706543	1677
3.308708906173706	1811
3.313734531402588	1492
3.3187971115112305	1262
3.3237829208374023	1298
3.328782320022583	999
3.3337082862854004	811
3.3387351036071777	1224
3.343655824661255	1382
3.3486087322235107	1101
3.353543281555176	1485
3.358691692352295	2267
3.3636343479156494	2556
3.368710517883301	2105
3.3737752437591553	1762
3.3788139820098877	1563
3.3837714195251465	1486
3.388742685317993	1681
3.39373517036438	1690
3.3987653255462646	1476
3.4037883281707764	1590
3.408797264099121	1751
3.4138023853302	1556
3.4187872409820557	1497
3.423769950866699	1706
3.428816795349121	1641
3.4337515830993652	1456
3.4388539791107178	1602
3.443883180618286	1664
3.448774814605713	1485
3.453829765319824	1553
3.4588420391082764	1683
3.463834524154663	1507
3.4688947200775146	1441
3.4739019870758057	1621
3.478835344314575	1568
3.4838521480560303	1426
3.488858938217163	1550
3.49383807182312	1576
3.4988646507263184	1392
3.503756523132324	1456
3.5086591243743896	1596
3.513806104660034	1440
3.518784523010254	1375
3.523796558380127	1526
3.5287387371063232	1481
3.5337204933166504	1328
3.538745880126953	1442
3.543762445449829	1495
3.5487139225006104	1359
3.5536880493164062	1397
3.5586626529693604	1529
3.563628673553467	1432
3.5685558319091797	1375
3.5735018253326416	1514
3.578556537628174	1510
3.5835587978363037	1394
3.5885262489318848	1476
3.593557357788086	1563
3.598479747772217	1468
3.603527545928955	1516
3.6085593700408936	1663
3.6135833263397217	1618
3.618647336959839	1593
3.623718738555908	1722
3.6288552284240723	1725
3.6338014602661133	1653
3.6389026641845703	1755
3.643890619277954	1791
3.6488888263702393	1662
3.6539578437805176	1702
3.658989429473877	1807
3.663930892944336	1706
3.6689741611480713	1665
3.673905849456787	1795
3.6788318157196045	1762
3.6838653087615967	1635
3.688997268676758	1733
3.6939873695373535	1788
3.6990182399749756	1664
3.704025983810425	1675
3.709023952484131	1761
3.713975667953491	1652
3.7189106941223145	1607
3.7239603996276855	1734
3.728984832763672	1725
3.7339954376220703	1618
3.7390646934509277	1698
3.744088888168335	1741
3.7490956783294678	1627
3.7540829181671143	1640
3.7590909004211426	1734
3.7640185356140137	1666
3.7689855098724365	1621
3.7739574909210205	1709
3.77897572517395	1685
3.7839856147766113	1599
3.7889883518218994	1685
3.7940282821655273	1710
3.799018621444702	1578
3.8041515350341797	1620
3.8090980052948	1737
3.8141894340515137	1648
3.819124221801758	1589
3.824131965637207	1699
3.829108238220215	1702
3.834102153778076	1610
3.8392255306243896	1670
3.844193935394287	1705
3.8491878509521484	1596
3.854191541671753	1603
3.859116792678833	1711
3.864206552505493	1678
3.869248151779175	1623
3.874267339706421	1700
3.8791754245758057	1676
3.884148597717285	1598
3.8891189098358154	1674
3.8941376209259033	1700
3.8990731239318848	1573
3.9041149616241455	1577
3.909200429916382	1676
3.9141793251037598	1593
3.919182300567627	1534
3.9242513179779053	1637
3.9292240142822266	1641
3.934210777282715	1549
3.9393310546875	1608
3.944312810897827	1649
3.9493658542633057	1538
3.9544239044189453	1545
3.9594006538391113	1653
3.964423894882202	1588
3.9694013595581055	1538
3.974351644515991	1586
3.9793598651885986	1536
3.984334707260132	1277
3.989372730255127	1138
3.9943506717681885	1004
3.999378204345703	830
4.004345893859863	957
4.009175539016724	1226
4.014179229736328	1171
4.019205570220947	1295
4.0242695808410645	1869
4.029268503189087	2391
4.034247159957886	2229
4.039330720901489	1752
4.0443115234375	1545
4.049231767654419	1474
4.054250001907349	1485
4.059247255325317	1550
4.064235210418701	1461
4.0692126750946045	1404
4.074201583862305	1530
4.07922887802124	1529
4.084306716918945	1409
4.08935022354126	1464
4.0943922996521	1535
4.099282264709473	1429
4.104274272918701	1405
4.10921311378479	1501
4.1142637729644775	1456
4.119321823120117	1404
4.124245882034302	1486
4.129319429397583	1475
4.1342315673828125	1371
4.139364957809448	1417
4.144508600234985	1463
4.149515151977539	1365
4.15447211265564	1367
4.159430265426636	1458
4.164461851119995	1389
4.169385194778442	1323
4.174402236938477	1413
4.179400205612183	1400
4.184381484985352	1302
4.189355373382568	1371
4.194540739059448	1420
4.199565410614014	1288
4.204693794250488	1286
4.209660291671753	1406
4.2147743701934814	1349
4.219723224639893	1302
4.224725723266602	1408
4.229662656784058	1406
4.234667778015137	1321
4.239676237106323	1389
4.244655609130859	1446
4.249626874923706	1371
4.25464940071106	1403
4.259578704833984	1511
4.264533758163452	1456
4.269563913345337	1431
4.274606466293335	1564
4.27957558631897	1584
4.284533739089966	1523
4.289627313613892	1614
4.294590950012207	1685
4.299683332443237	1604
4.304746866226196	1629
4.3098132610321045	1719
4.314796447753906	1669
4.319802284240723	1628
4.324831962585449	1716
4.329806566238403	1716
4.3348493576049805	1631
4.3398964405059814	1689
4.345029354095459	1726
4.350060224533081	1623
4.355058670043945	1615
4.360048055648804	1709
4.365056276321411	1645
4.37013053894043	1589
4.374992370605469	1688
4.379983186721802	1687
4.385014295578003	1587
4.390109062194824	1648
4.395042419433594	1711
4.39995813369751	1620
4.405020713806152	1584
4.409979581832886	1684
4.414959669113159	1640
4.419984579086304	1563
4.424954652786255	1653
4.429942607879639	1671
4.4349048137664795	1567
4.4398722648620605	1620
4.4448370933532715	1692
4.4498090744018555	1604
4.454817533493042	1590
4.459889888763428	1697
4.4648542404174805	1640
4.469826698303223	1567
4.474881649017334	1658
4.479909896850586	1678
4.484886884689331	1573
4.489974021911621	1632
4.494964361190796	1709
4.5	1602
4.504947662353516	1593
4.509918928146362	1703
4.514967203140259	1659
4.519959926605225	1582
4.525061845779419	1683
4.530024528503418	1702
4.535049915313721	1584
4.5400495529174805	1624
4.545064449310303	1697
4.550063371658325	1615
4.555108547210693	1626
4.560122966766357	1734
4.56510853767395	1673
4.570245265960693	1605
4.575356721878052	1692
4.580361843109131	1705
4.58532190322876	1611
4.590379476547241	1652
4.595341205596924	1683
4.600309610366821	1562
4.605359077453613	1575
4.610363245010376	1686
4.615461826324463	1625
4.620346546173096	1563
4.6252570152282715	1677
4.63031530380249	1657
4.635300636291504	1531
4.640360116958618	1597
4.645260810852051	1668
4.650287389755249	1565
4.655202388763428	1564
4.660207509994507	1661
4.665182113647461	1591
4.670219659805298	1525
4.67514967918396	1576
4.680177688598633	1463
4.685202360153198	1134
4.690290689468384	977
4.695106267929077	866
4.7001049518585205	791
4.705052137374878	1058
4.71002459526062	1322
4.715026140213013	1301
4.720045804977417	1564
4.72513484954834	2221
4.73016357421875	2570
4.735162973403931	2083
4.740291118621826	1648
4.745292663574219	1610
4.7502830028533936	1537
4.755285739898682	1501
4.760311126708984	1562
4.765312194824219	1515
4.770305871963501	1449
4.775288105010986	1534
4.780351161956787	1546
4.78534197807312	1415
4.790314197540283	1445
4.795329570770264	1547
4.80028510093689	1463
4.8052637577056885	1433
4.810378789901733	1516
4.815411806106567	1461
4.820346832275391	1360
4.825413942337036	1453
4.830342531204224	1506
4.835344314575195	1381
4.840367794036865	1380
4.845397233963013	1466
4.850385904312134	1393
4.855387449264526	1360
4.860371351242065	1454
4.8652637004852295	1409
4.8702616691589355	1309
4.875288963317871	1380
4.880258321762085	1407
4.885232210159302	1300
4.890281915664673	1315
4.895266056060791	1409
4.90023398399353	1334
4.90525484085083	1290
4.910354375839233	1377
4.915367841720581	1348
4.920367479324341	1265
4.925356388092041	1356
4.930302858352661	1414
4.935274124145508	1324
4.940307855606079	1352
4.945343017578125	1450
4.950306177139282	1381
4.955388069152832	1359
4.960448741912842	1491
4.965333461761475	1504
4.970354795455933	1423
4.975391864776611	1531
4.980397462844849	1607
4.98542594909668	1523
4.990456581115723	1566
4.995524644851685	1675
5.000540494918823	1613
5.005572080612183	1602
5.0105414390563965	1708
5.015561103820801	1677
5.020519256591797	1593
5.02546238899231	1666
5.030518531799316	1699
5.035491466522217	1603
5.040589809417725	1648
5.045556306838989	1725
5.050639390945435	1611
5.055612325668335	1584
5.060667037963867	1693
5.065638542175293	1655
5.070677280426025	1592
5.0756964683532715	1668
5.080689191818237	1665
5.085643529891968	1565
5.090670347213745	1621
5.095638751983643	1674
5.100663661956787	1583
5.105698347091675	1588
5.110687017440796	1675
5.115663051605225	1614
5.120620012283325	1565
5.12554407119751	1651
5.130544900894165	1645
5.1355345249176025	1547
5.140490770339966	1621
5.145540475845337	1686
5.1505560874938965	1577
5.155534029006958	1609
5.160518407821655	1682
5.165461778640747	1602
5.170504331588745	1582
5.1755499839782715	1691
5.180481910705566	1655
5.185484170913696	1566
5.190484523773193	1651
5.195515394210815	1684
5.20054292678833	1584
5.205474853515625	1618
5.210512638092041	1698
5.21544623374939	1622
5.220419883728027	1596
5.2253687381744385	1691
5.230393648147583	1657
5.235460996627808	1578
5.240457057952881	1686
5.245514392852783	1719
5.250556468963623	1605
5.255537271499634	1649
5.2604827880859375	1720
5.265454292297363	1632
5.270370244979858	1608
5.27534556388855	1704
5.280393600463867	1628
5.285504341125488	1528
5.290476083755493	1626
5.295429944992065	1658
5.300473213195801	1571
5.305455923080444	1624
5.3103346824646	1692
5.315369367599487	1585
5.320406436920166	1562
5.325372934341431	1662
5.330366134643555	1608
5.335338830947876	1528
5.340333461761475	1626
5.345339298248291	1644
5.35033655166626	1531
5.3553361892700195	1574
5.36034083366394	1615
5.365282297134399	1409
5.370281219482422	1173
5.375286102294922	1045
5.3803136348724365	779
5.385357141494751	706
5.390264987945557	1087
5.395155906677246	1275
5.400283098220825	1265
5.405203819274902	1764
5.41023063659668	2389
5.41529393196106	2462
5.420325517654419	1970
5.425241708755493	1676
5.430279731750488	1575
5.435351610183716	1522
5.440368175506592	1586
5.445349216461182	1558
5.4502503871917725	1440
5.455204963684082	1506
5.460276365280151	1578
5.465294122695923	1467
5.470299005508423	1453
5.475364685058594	1572
5.48032808303833	1505
5.485320329666138	1411
5.490312576293945	1520
5.495364189147949	1524
5.500355243682861	1390
5.505358934402466	1458
5.510378837585449	1537
5.515340328216553	1418
5.52033257484436	1405
5.5252885818481445	1510
5.530384540557861	1441
5.5353899002075195	1364
5.540444612503052	1477
5.545515537261963	1468
5.550459861755371	1339
5.555439472198486	1413
5.560455083847046	1473
5.565556526184082	1340
5.5705132484436035	1347
5.575477123260498	1458
5.580485820770264	1370
5.585506916046143	1293
5.590506553649902	1414
5.595639705657959	1409
5.6006247997283936	1299
5.605583906173706	1389
5.610612392425537	1457
5.615614414215088	1348
5.620614528656006	1374
5.625516653060913	1492
5.630640268325806	1411
5.635648965835571	1364
5.640635013580322	1512
5.645555734634399	1531
5.650532245635986	1437
5.655538082122803	1548
5.660547256469727	1626
5.665565729141235	1527
5.670552968978882	1582
5.675531387329102	1720
5.680517673492432	1644
5.685567855834961	1594
5.690592288970947	1725
5.695597171783447	1731
5.700564861297607	1609
5.705582618713379	1694
5.710574626922607	1764
5.7155914306640625	1634
5.720623970031738	1649
5.7256691455841064	1763
5.7307727336883545	1666
5.735748291015625	1614
5.740753412246704	1738
5.745789527893066	1710
5.750818967819214	1594
5.7558979988098145	1691
5.760896921157837	1737
5.765939950942993	1605
5.770959377288818	1646
5.776038885116577	1744
5.781059265136719	1634
5.78616738319397	1604
5.791164875030518	1724
5.796225547790527	1681
5.801207780838013	1584
5.806170701980591	1693
5.811159133911133	1722
5.81614089012146	1596
5.8211753368377686	1646
5.8261940479278564	1744
5.831272840499878	1630
5.836264133453369	1600
5.841312646865845	1720
5.846394062042236	1665
5.8514955043792725	1582
5.85642409324646	1700
5.8614561557769775	1715
5.8665313720703125	1600
5.871535539627075	1678
5.876570701599121	1744
5.881563901901245	1627
5.886631011962891	1629
5.8917236328125	1743
5.8967444896698	1668
5.901694059371948	1602
5.906818389892578	1727
5.911738395690918	1729
5.916748285293579	1624
5.921700716018677	1704
5.926623582839966	1762
5.931638717651367	1640
5.936663866043091	1654
5.941686630249023	1765
5.946803331375122	1646
5.9517223834991455	1563
5.956690788269043	1687
5.96174168586731	1694
5.966781854629517	1592
5.971729040145874	1681
5.976805210113525	1741
5.981764078140259	1609
5.986764430999756	1616
5.9917192459106445	1730
5.996820688247681	1627
6.00185751914978	1556
6.006929397583008	1685
6.011986255645752	1670
6.017052888870239	1551
6.021965026855469	1617
6.027024507522583	1650
6.032035827636719	1395
6.037079811096191	1172
6.042117595672607	1040
6.047073125839233	781
6.051928520202637	744
6.056830167770386	1073
6.061817646026611	1153
6.066801071166992	1214
6.071782350540161	1890
6.076845407485962	2624
6.081817865371704	2443
6.086758852005005	1824
6.091829776763916	1651
6.096805095672607	1656
6.101805686950684	1607
6.1067492961883545	1629
6.111782550811768	1580
6.116810083389282	1475
6.121817111968994	1566
6.126943111419678	1636
6.131838798522949	1496
6.136826753616333	1481
6.141791820526123	1591
6.146840810775757	1529
6.15181565284729	1447
6.156866788864136	1554
6.1619648933410645	1556
6.167027235031128	1443
6.1719865798950195	1509
6.1769328117370605	1566
6.181960821151733	1450
6.1869423389434814	1434
6.192003488540649	1550
6.1969194412231445	1474
6.201983213424683	1394
6.206967353820801	1503
6.211977005004883	1502
6.21696138381958	1384
6.22194504737854	1436
6.226930618286133	1497
6.23193097114563	1393
6.236872434616089	1375
6.241872787475586	1462
6.246916770935059	1412
6.25197172164917	1360
6.256994724273682	1449
6.261999130249023	1460
6.267001390457153	1375
6.271962642669678	1428
6.276979207992554	1500
6.281915664672852	1424
6.286935329437256	1421
6.291951656341553	1516
6.296925067901611	1483
6.301825046539307	1447
6.306874990463257	1544
6.311870098114014	1587
6.316922903060913	1526
6.321997880935669	1573
6.32689905166626	1646
6.331926107406616	1615
6.33698296546936	1626
6.342068195343018	1721
6.347018480300903	1695
6.3519532680511475	1653
6.356817007064819	1743
6.361799478530884	1770
6.366907835006714	1677
6.371845483779907	1710
6.376893043518066	1774
6.381868839263916	1697
6.386920928955078	1676
6.3917365074157715	1761
6.396820783615112	1724
6.40184211730957	1647
6.406809568405151	1725
6.41188907623291	1756
6.416851282119751	1654
6.421818017959595	1693
6.426827907562256	1770
6.431823253631592	1670
6.436776876449585	1645
6.441835641860962	1737
6.446926116943359	1704
6.451930284500122	1629
6.45701789855957	1706
6.462019920349121	1723
6.467040777206421	1611
6.472084999084473	1666
6.477136611938477	1729
6.4822564125061035	1627
6.487289190292358	1655
6.4923036098480225	1763
6.497283458709717	1695
6.502279043197632	1609
6.507319211959839	1698
6.512388229370117	1712
6.517533302307129	1632
6.522681951522827	1697
6.527754783630371	1747
6.5327935218811035	1644
6.537751197814941	1673
6.542837381362915	1779
6.5478010177612305	1709
6.552776336669922	1662
6.557829856872559	1771
6.562853097915649	1762
6.567898988723755	1644
6.572871923446655	1708
6.577857494354248	1769
6.582840442657471	1655
6.587825536727905	1651
6.5928356647491455	1720
6.597822427749634	1658
6.60282564163208	1605
6.607849359512329	1717
6.6128456592559814	1707
6.617844343185425	1598
6.622892141342163	1675
6.627913236618042	1741
6.632919549942017	1618
6.638028144836426	1631
6.643009901046753	1718
6.64797043800354	1631
6.65299391746521	1600
6.658130884170532	1699
6.663119554519653	1630
6.668118715286255	1522
6.673145055770874	1442
6.6781604290008545	1250
6.683130741119385	912
6.688074350357056	817
6.6929521560668945	997
6.697800874710083	1085
6.7027459144592285	1059
6.707784175872803	1394
6.712737560272217	1999
6.717792749404907	2493
6.722785472869873	2438
6.727816104888916	1905
6.73278021812439	1563
6.737775802612305	1642
6.742873430252075	1721
6.747860670089722	1584
6.752835750579834	1517
6.757834434509277	1616
6.762791395187378	1596
6.767767906188965	1510
6.772770643234253	1586
6.777740001678467	1629
6.78278374671936	1506
6.787697076797485	1522
6.792665481567383	1609
6.797743558883667	1518
6.802767276763916	1473
6.807838201522827	1585
6.812769174575806	1569
6.817804336547852	1461
6.822814702987671	1525
6.82776951789856	1555
6.832741737365723	1469
6.83781886100769	1500
6.84279465675354	1567
6.8478920459747314	1468
6.852905988693237	1430
6.85793399810791	1523
6.862916946411133	1486
6.8680031299591064	1405
6.873080015182495	1485
6.878069639205933	1512
6.883053302764893	1398
6.888023376464844	1432
6.892960786819458	1496
6.898021221160889	1409
6.902985572814941	1425
6.908053874969482	1526
6.913020133972168	1489
6.917980194091797	1434
6.9229817390441895	1539
6.92803955078125	1571
6.932987213134766	1473
6.938028812408447	1518
6.942983865737915	1614
6.948064088821411	1555
6.953022003173828	1554
6.958012342453003	1681
6.963124990463257	1673
6.968135356903076	1622
6.973225116729736	1729
6.97833776473999	1773
6.983321905136108	1697
6.988368272781372	1749
6.9933600425720215	1827
6.998340845108032	1725
7.003351449966431	1724
7.008398771286011	1840
7.013315439224243	1812
7.0183141231536865	1730
7.023362636566162	1804
7.028396368026733	1836
7.033359050750732	1743
7.038372993469238	1797
7.043353080749512	1854
7.0483386516571045	1746
7.053420066833496	1724
7.058431625366211	1817
7.063479900360107	1778
7.068529367446899	1717
7.073545455932617	1796
7.078563213348389	1797
7.083569765090942	1700
7.088740110397339	1750
7.093782901763916	1817
7.098843336105347	1738
7.103796482086182	1751
7.108710289001465	1833
7.113839149475098	1764
7.119027376174927	1715
7.124099016189575	1819
7.129098892211914	1809
7.13417649269104	1714
7.139160871505737	1786
7.144215822219849	1834
7.149223804473877	1735
7.1542134284973145	1760
7.159235954284668	1860
7.164263963699341	1782
7.169237852096558	1744
7.174210786819458	1848
7.179131984710693	1842
7.184077739715576	1759
7.189074993133545	1818
7.194108009338379	1871
7.199132919311523	1769
7.204153537750244	1765
7.209149599075317	1831
7.214179754257202	1763
7.219180583953857	1722
7.224175930023193	1826
7.2293455600738525	1829
7.234338760375977	1748
7.239319086074829	1808
7.24429726600647	1834
7.249344825744629	1714
7.254308700561523	1741
7.259346008300781	1845
7.264430522918701	1773
7.2694549560546875	1714
7.274457693099976	1820
7.279433250427246	1789
7.284409761428833	1677
7.289407730102539	1733
7.294360160827637	1623
7.299363851547241	1300
7.3044116497039795	1110
7.309444189071655	1071
7.3143861293792725	1030
7.319356441497803	1079
7.324430704116821	1177
7.32943868637085	1404
7.334363222122192	1953
7.339384317398071	2645
7.344384431838989	2572
7.349378824234009	1886
7.354457855224609	1671
7.359492301940918	1843
7.364392042160034	1772
7.369422674179077	1654
7.3744056224823	1697
7.379427194595337	1697
7.384426832199097	1631
7.389498233795166	1694
7.394548177719116	1716
7.399589538574219	1603
7.404563903808594	1625
7.4096362590789795	1703
7.414669752120972	1607
7.419687986373901	1567
7.424685478210449	1673
7.429706573486328	1638
7.434772253036499	1549
7.439779043197632	1622
7.444899320602417	1637
7.449869871139526	1530
7.45490026473999	1571
7.459867000579834	1631
7.464912176132202	1559
7.469980001449585	1524
7.474929332733154	1601
7.479995250701904	1558
7.4849629402160645	1483
7.49006986618042	1552
7.495085000991821	1569
7.500154733657837	1466
7.505114555358887	1502
7.510000944137573	1574
7.515000581741333	1490
7.520032167434692	1462
7.525031805038452	1562
7.530049800872803	1534
7.535094976425171	1465
7.54004430770874	1555
7.545090198516846	1583
7.550083637237549	1481
7.555043697357178	1540
7.559992790222168	1648
7.564972639083862	1570
7.5700366497039795	1571
7.575267553329468	1690
7.580261468887329	1651
7.585316181182861	1601
7.590313911437988	1701
7.595315456390381	1743
7.600314140319824	1673
7.605391502380371	1736
7.6104114055633545	1796
7.615407466888428	1700
7.620363712310791	1707
7.625262022018433	1806
7.630299091339111	1740
7.6353888511657715	1684
7.640395879745483	1784
7.645402908325195	1776
7.650357007980347	1664
7.6553497314453125	1729
7.660233736038208	1798
7.665319919586182	1691
7.670240879058838	1682
7.675203800201416	1774
7.680291414260864	1712
7.685281753540039	1638
7.6901795864105225	1742
7.6953160762786865	1751
7.700381517410278	1642
7.705377101898193	1700
7.710384845733643	1754
7.715445041656494	1647
7.720435619354248	1645
7.7253782749176025	1736
7.730377674102783	1670
7.735386848449707	1622
7.740404844284058	1713
7.745471477508545	1708
7.750466585159302	1613
7.755395174026489	1667
7.76036810874939	1733
7.765367269515991	1651
7.770433187484741	1663
7.775471925735474	1760
7.780385255813599	1694
7.785491466522217	1636
7.790544509887695	1738
7.795672416687012	1724
7.800687313079834	1644
7.805659532546997	1718
7.810737609863281	1745
7.815689325332642	1627
7.820679664611816	1640
7.82578444480896	1727
7.8307623863220215	1648
7.835788249969482	1619
7.840735912322998	1732
7.845762014389038	1701
7.850792407989502	1601
7.8558433055877686	1678
7.860849142074585	1704
7.86586594581604	1588
7.870830297470093	1611
7.875742435455322	1700
7.880789518356323	1621
7.8859381675720215	1581
7.891084671020508	1664
7.8959736824035645	1618
7.900995492935181	1419
7.906049728393555	1286
7.910994291305542	1100
7.91599702835083	814
7.920975208282471	866
7.925853490829468	1082
7.930830955505371	999
7.935732841491699	1064
7.940744161605835	1772
7.945689678192139	2459
7.950666189193726	2453
7.955693244934082	1955
7.960693836212158	1651
7.965615272521973	1591
7.970591068267822	1662
7.9756693840026855	1664
7.980694055557251	1508
7.985719919204712	1479
7.990819215774536	1608
7.995789527893066	1566
8.000787734985352	1457
8.005789995193481	1546
8.010818004608154	1574
8.015767097473145	1446
8.020715951919556	1465
8.025617122650146	1563
8.030675649642944	1483
8.035663604736328	1439
8.040680408477783	1537
8.045683860778809	1490
8.050709247589111	1387
8.055668115615845	1470
8.060648202896118	1514
8.065619945526123	1391
8.070526123046875	1399
8.075512409210205	1487
8.080538272857666	1402
8.08548617362976	1345
8.090400218963623	1449
8.09554409980774	1419
8.100490093231201	1320
8.10551905632019	1394
8.110515356063843	1437
8.115485191345215	1314
8.120485067367554	1338
8.125359058380127	1445
8.130443572998047	1366
8.135493993759155	1309
8.140458106994629	1422
8.145471096038818	1419
8.150485038757324	1331
8.155513763427734	1432
8.160393953323364	1489
8.165439367294312	1380
8.170440912246704	1411
8.175493001937866	1533
8.180370092391968	1476
8.185368299484253	1449
8.190365314483643	1588
8.19541883468628	1576
8.20038890838623	1486
8.205454349517822	1603
8.210541486740112	1680
8.215564250946045	1568
8.220683574676514	1596
8.225663661956787	1696
8.230669975280762	1614
8.235608577728271	1564
8.240629434585571	1680
8.245646476745605	1658
8.25063943862915	1567
8.255711078643799	1650
8.26069188117981	1683
8.265706062316895	1557
8.2707040309906	1594
8.275712490081787	1690
8.28074836730957	1601
8.285774946212769	1561
8.290720224380493	1664
8.295692920684814	1618
8.300718069076538	1513
8.30574345588684	1608
8.310755252838135	1642
8.315716981887817	1528
8.32070541381836	1577
8.325762510299683	1665
8.330737590789795	1557
8.335696935653687	1520
8.34058952331543	1641
8.34560489654541	1612
8.350619316101074	1517
8.35563349723816	1602
8.360635757446289	1640
8.365591049194336	1525
8.370615005493164	1573
8.37564468383789	1679
8.380666494369507	1591
8.38573145866394	1556
8.3908212184906	1666
8.395748376846313	1643
8.400789499282837	1545
8.40577507019043	1622
8.410773754119873	1632
8.415780782699585	1506
8.420821905136108	1547
8.425788164138794	1647
8.430928945541382	1567
8.43587064743042	1542
8.440896034240723	1639
8.44588017463684	1584
8.450900077819824	1489
8.455894947052002	1584
8.460892677307129	1611
8.465938329696655	1493
8.470942735671997	1542
8.47598648071289	1628
8.481000185012817	1504
8.48591923713684	1475
8.490915775299072	1549
8.49592113494873	1318
8.501007556915283	991
8.505913496017456	876
8.510785102844238	816
8.515740871429443	788
8.520629167556763	921
8.525464296340942	985
8.530427932739258	1165
8.535500288009644	1854
8.540535926818848	2567
8.545464992523193	2270
8.550512552261353	1576
8.55552077293396	1510
8.560521125793457	1665
8.565499067306519	1551
8.57047963142395	1484
8.575495958328247	1533
8.580532789230347	1467
8.585524559020996	1441
8.590445756912231	1533
8.595526933670044	1489
8.600588321685791	1391
8.605550050735474	1478
8.6104736328125	1518
8.615472078323364	1398
8.620445728302002	1426
8.625427484512329	1524
8.63046646118164	1426
8.635510921478271	1371
8.640482664108276	1471
8.64544939994812	1440
8.650441884994507	1336
8.655475854873657	1419
8.660516262054443	1470
8.665536642074585	1353
8.67047667503357	1364
8.675348281860352	1439
8.680368185043335	1349
8.685369491577148	1301
8.690394878387451	1407
8.695319414138794	1382
8.700416088104248	1279
8.705466270446777	1356
8.710451126098633	1384
8.715428352355957	1274
8.720466136932373	1320
8.725555896759033	1415
8.730607509613037	1329
8.735544681549072	1290
8.740459680557251	1409
8.74547815322876	1400
8.750493288040161	1307
8.755496740341187	1396
8.760576009750366	1450
8.765573978424072	1358
8.77064299583435	1423
8.775550603866577	1546
8.780566692352295	1477
8.785717487335205	1461
8.790695667266846	1590
8.795654773712158	1584
8.800668001174927	1497
8.805660009384155	1606
8.810572147369385	1678
8.815545558929443	1568
8.820597648620605	1595
8.82564115524292	1696
8.830513000488281	1623
8.835489511489868	1588
8.840492725372314	1686
8.845494270324707	1652
8.850579738616943	1553
8.855559349060059	1643
8.860589504241943	1677
8.86561918258667	1557
8.870567321777344	1593
8.87562346458435	1690
8.880794048309326	1582
8.88586974143982	1553
8.890823364257812	1664
8.895805597305298	1630
8.900821447372437	1543
8.905917644500732	1632
8.910946130752563	1642
8.915915966033936	1518
8.92087697982788	1563
8.925730466842651	1652
8.930778980255127	1562
8.935769081115723	1549
8.940823793411255	1661
8.945863723754883	1610
8.950853824615479	1518
8.95590877532959	1629
8.960917711257935	1679
8.965944051742554	1568
8.970943212509155	1614
8.975924491882324	1699
8.980942726135254	1606
8.986024618148804	1585
8.990916728973389	1685
8.995946168899536	1607
9.000942945480347	1509
9.005934000015259	1603
9.010990381240845	1644
9.016018867492676	1539
9.020987510681152	1597
9.025893211364746	1675
9.03088641166687	1567
9.035962581634521	1544
9.040972709655762	1658
9.04598879814148	1600
9.051000356674194	1505
9.056024312973022	1608
9.061079740524292	1632
9.066155672073364	1513
9.071187973022461	1547
9.076063394546509	1586
9.081138372421265	1329
9.086211442947388	1110
9.091209888458252	1019
9.096198081970215	818
9.101022958755493	785
9.105818033218384	1026
9.110828161239624	997
9.115693092346191	915
9.120625019073486	1525
9.125568628311157	2381
9.130570650100708	2441
9.135519027709961	1821
9.140572309494019	1556
9.145643472671509	1571
9.150641918182373	1556
9.155721426010132	1591
9.160752296447754	1566
9.165639400482178	1468
9.170670986175537	1521
9.175643920898438	1601
9.18071961402893	1490
9.185722827911377	1459
9.19077467918396	1567
9.195741653442383	1529
9.200718879699707	1434
9.205740451812744	1512
9.210732221603394	1539
9.215691089630127	1429
9.220621109008789	1464
9.22566819190979	1552
9.230671882629395	1452
9.235686779022217	1417
9.240713119506836	1517
9.245719194412231	1462
9.250734329223633	1357
9.255714893341064	1445
9.260822057723999	1483
9.26574158668518	1367
9.27076530456543	1401
9.275743961334229	1481
9.280716896057129	1370
9.285653591156006	1330
9.290624856948853	1434
9.29561996459961	1397
9.300576210021973	1301
9.305553913116455	1393
9.310599327087402	1430
9.315588474273682	1324
9.320462226867676	1368
9.325384855270386	1462
9.330400228500366	1377
9.335375308990479	1341
9.340394496917725	1467
9.345412731170654	1443
9.350439071655273	1365
9.35546064376831	1481
9.360440015792847	1551
9.365453004837036	1471
9.370402574539185	1529
9.375446557998657	1631
9.380472183227539	1570
9.385380268096924	1559
9.390357971191406	1698
9.395344018936157	1687
9.400318622589111	1592
9.405422925949097	1678
9.410362720489502	1729
9.415353298187256	1618
9.420348644256592	1653
9.425325870513916	1754
9.430320501327515	1665
9.435268640518188	1614
9.440229177474976	1725
9.44536304473877	1694
9.450308799743652	1595
9.455308675765991	1688
9.460346221923828	1722
9.465350866317749	1597
9.470367193222046	1626
9.475366115570068	1717
9.48038649559021	1632
9.485394716262817	1583
9.490389108657837	1692
9.495401620864868	1675
9.500450134277344	1567
9.505392789840698	1646
9.510444164276123	1703
9.515389442443848	1594
9.52046012878418	1625
9.525465250015259	1705
9.53053092956543	1626
9.535651445388794	1604
9.540617227554321	1708
9.545655965805054	1671
9.5506751537323	1596
9.555669069290161	1692
9.560696840286255	1728
9.56564211845398	1621
9.570598125457764	1659
9.575567722320557	1752
9.580604791641235	1652
9.585615634918213	1614
9.590622901916504	1710
9.595698833465576	1661
9.600714921951294	1568
9.6056809425354	1674
9.610687017440796	1697
9.615728855133057	1590
9.620773315429688	1647
9.625772476196289	1725
9.630758285522461	1616
9.635841131210327	1589
9.640947818756104	1695
9.645973205566406	1647
9.651029348373413	1570
9.655943155288696	1661
9.660967588424683	1670
9.665885210037231	1523
9.670990705490112	1562
9.675915241241455	1481
9.680942296981812	1138
9.685963153839111	898
9.690815210342407	941
9.695749998092651	996
9.700703144073486	940
9.70556902885437	892
9.710466384887695	1127
9.715553522109985	1720
9.72048044204712	2449
9.725469827651978	2435
9.73047423362732	1738
9.735535144805908	1459
9.740495443344116	1675
9.745564699172974	1682
9.75052785873413	1525
9.755544662475586	1583
9.76046872138977	1637
9.76549506187439	1529
9.770544290542603	1561
9.77558946609497	1645
9.780513286590576	1563
9.785480976104736	1528
9.790481805801392	1627
9.795494079589844	1584
9.80047082901001	1488
9.805562496185303	1580
9.810504913330078	1607
9.815495729446411	1481
9.820548295974731	1520
9.82557988166809	1607
9.830615997314453	1500
9.835618257522583	1463
9.840648889541626	1576
9.845591068267822	1529
9.850642681121826	1418
9.85568904876709	1509
9.860795021057129	1531
9.865812301635742	1410
9.870925426483154	1454
9.875942707061768	1524
9.880863189697266	1407
9.88588833808899	1392
9.890890121459961	1504
9.895943641662598	1443
9.90101432800293	1361
9.906024932861328	1465
9.911140441894531	1481
9.916162014007568	1369
9.921185731887817	1436
9.926133155822754	1521
9.931076526641846	1423
9.936096668243408	1416
9.941058874130249	1533
9.946161031723022	1506
9.951182126998901	1475
9.956159830093384	1597
9.961249828338623	1627
9.966212034225464	1555
9.97118878364563	1664
9.97620177268982	1754
9.981189250946045	1653
9.986233234405518	1676
9.991353273391724	1788
9.996283531188965	1730
10.0012788772583	1675
10.006197929382324	1788
10.011223077774048	1784
10.016303539276123	1658
10.021389484405518	1729
10.02642035484314	1811
10.031435489654541	1697
10.036452531814575	1691
10.04148006439209	1790
10.046526670455933	1710
10.05145263671875	1651
10.056427478790283	1769
10.061454772949219	1758
10.066409349441528	1637
10.071382284164429	1706
10.076385498046875	1765
10.081412315368652	1651
10.086481094360352	1662
10.091431379318237	1763
10.096486330032349	1678
10.101451873779297	1625
10.106502532958984	1749
10.11150336265564	1743
10.11662483215332	1623
10.121652841567993	1699
10.126553535461426	1760
10.131601810455322	1643
10.136688947677612	1662
10.141666412353516	1756
10.146645784378052	1676
10.151787996292114	1624
10.156806707382202	1741
10.161727905273438	1727
10.166706800460815	1623
10.171730041503906	1703
10.17682957649231	1753
10.181880235671997	1639
10.186837673187256	1662
10.191811800003052	1757
10.19678020477295	1673
10.201833248138428	1618
10.206870794296265	1732
10.21184754371643	1730
10.216909170150757	1634
10.221877813339233	1711
10.226783990859985	1752
10.23180365562439	1641
10.236871480941772	1680
10.241968870162964	1784
10.246922254562378	1695
10.252025365829468	1645
10.256962537765503	1749
10.261957883834839	1719
10.266923427581787	1635
10.272126913070679	1720
10.277097940444946	1739
10.281983613967896	1608
10.286962509155273	1641
10.292021036148071	1737
10.29708194732666	1647
10.302159070968628	1622
10.3071928024292	1735
10.31212592124939	1686
10.31710171699524	1581
10.322178840637207	1675
10.327215194702148	1712
10.332247734069824	1591
10.337270021438599	1624
10.342204093933105	1704
10.347230672836304	1606
10.352202653884888	1581
10.357357025146484	1701
10.36226511001587	1655
10.36729645729065	1536
10.372360944747925	1469
10.377307891845703	1257
10.382225275039673	876
10.387224197387695	811
10.392048597335815	983
10.396955013275146	865
10.401838064193726	706
10.406702518463135	1145
10.411604642868042	1865
10.416630744934082	2441
10.421642065048218	2384
10.426782131195068	1840
10.43181586265564	1484
10.436816930770874	1582
10.44174337387085	1714
10.446718454360962	1596
10.451735496520996	1523
10.45673131942749	1642
10.461755752563477	1630
10.466793298721313	1515
10.471748352050781	1599
10.47671127319336	1643
10.481709718704224	1516
10.486726522445679	1534
10.491689920425415	1633
10.49667477607727	1549
10.501736640930176	1500
10.506624460220337	1605
10.51158595085144	1576
10.51660943031311	1456
10.52164363861084	1537
10.526595830917358	1596
10.531596422195435	1470
10.536636590957642	1473
10.54166054725647	1568
10.546669483184814	1485
10.551695585250854	1423
10.55676794052124	1525
10.56175708770752	1495
10.56673288345337	1380
10.57187557220459	1453
10.576827049255371	1499
10.581877708435059	1374
10.586811065673828	1388
10.59177279472351	1482
10.596800565719604	1402
10.601795673370361	1349
10.606704950332642	1466
10.611676931381226	1443
10.616665840148926	1338
10.621662855148315	1433
10.626646041870117	1496
10.631645441055298	1391
10.636645793914795	1422
10.641624689102173	1549
10.646715641021729	1498
10.651737213134766	1484
10.656704902648926	1629
10.66177749633789	1636
10.666793584823608	1561
10.671853303909302	1679
10.67682933807373	1755
10.681885480880737	1644
10.68695592880249	1678
10.692051887512207	1785
10.697088718414307	1710
10.702189683914185	1675
10.707064151763916	1791
10.712114334106445	1754
10.71713137626648	1665
10.722158670425415	1754
10.727165699005127	1782
10.73216986656189	1658
10.737205743789673	1688
10.74216103553772	1777
10.747227191925049	1694
10.752244472503662	1665
10.757237434387207	1771
10.762339115142822	1721
10.767337322235107	1633
10.772328853607178	1728
10.777210474014282	1750
10.782265424728394	1630
10.787283420562744	1672
10.792377710342407	1756
10.797370195388794	1660
10.802345514297485	1641
10.807380437850952	1747
10.812345504760742	1702
10.817348957061768	1614
10.822304010391235	1705
10.827350378036499	1740
10.83231782913208	1629
10.837289333343506	1672
10.842319965362549	1741
10.847325086593628	1646
10.852355003356934	1638
10.857402086257935	1757
10.862473011016846	1701
10.867489337921143	1614
10.872446775436401	1711
10.877418994903564	1735
10.882397651672363	1620
10.887376070022583	1678
10.89234733581543	1760
10.897296667098999	1662
10.902294874191284	1643
10.907213926315308	1758
10.912216424942017	1711
10.917146921157837	1623
10.922171831130981	1718
10.927149295806885	1751
10.93208384513855	1622
10.93710708618164	1669
10.942139387130737	1767
10.947145223617554	1662
10.95225191116333	1625
10.95733118057251	1739
10.962274551391602	1706
10.967249870300293	1619
10.972289562225342	1707
10.977229833602905	1735
10.982325792312622	1622
10.987287521362305	1664
10.992194652557373	1735
10.997244596481323	1639
11.002272605895996	1625
11.007270812988281	1748
11.012344360351562	1696
11.017373085021973	1597
11.022388696670532	1696
11.027332544326782	1721
11.032379150390625	1604
11.037395477294922	1649
11.042381286621094	1733
11.047439575195312	1638
11.052237749099731	1610
11.057164907455444	1716
11.062146425247192	1672
11.067200899124146	1581
11.072203636169434	1679
11.077264308929443	1710
11.08224105834961	1585
11.087218046188354	1636
11.092122793197632	1734
11.097156047821045	1636
11.102188110351562	1594
11.107198476791382	1697
11.112154960632324	1666
11.117180824279785	1583
11.12209177017212	1682
11.127148151397705	1712
11.132167339324951	1592
11.137199878692627	1635
11.143094778060913	1728
11.147151708602905	1630
11.15211796760559	1589
11.15709376335144	1692
11.16204047203064	1640
11.167064666748047	1540
11.172045469284058	1640
11.176984786987305	1679
11.181978225708008	1564
11.187027215957642	1611
11.191981792449951	1707
11.197023630142212	1609
11.201933145523071	1559
11.206875324249268	1662
11.211926937103271	1634
11.216897010803223	1535
11.221937417984009	1618
11.226954221725464	1656
11.231952428817749	1549
11.236940145492554	1583
11.241969347000122	1670
11.246868133544922	1580
11.251802206039429	1503
11.256867408752441	1425
11.261921882629395	1122
11.266881465911865	769
11.271759271621704	820
11.276620388031006	963
11.28149127960205	767
11.286477327346802	677
11.291281938552856	1172
11.296365737915039	1836
11.30138373374939	2394
11.306383848190308	2330
11.311323404312134	1766
11.316293001174927	1445
11.321366310119629	1571
11.326400995254517	1674
11.331290483474731	1541
11.336316347122192	1527
11.341318130493164	1636
11.346371412277222	1562
11.351411581039429	1490
11.356448650360107	1593
11.36145305633545	1588
11.366422891616821	1473
11.371520757675171	1536
11.376538276672363	1593
11.38153600692749	1479
11.386524677276611	1483
11.391496419906616	1578
11.396447658538818	1493
11.40147066116333	1434
11.406482219696045	1552
11.411498546600342	1545
11.416526317596436	1412
11.42148470878601	1475
11.426500797271729	1531
11.43147897720337	1414
11.436492443084717	1416
11.441523790359497	1512
11.446516990661621	1424
11.45153546333313	1369
11.456523656845093	1472
11.46165156364441	1447
11.466686248779297	1319
11.471798181533813	1403
11.476810216903687	1462
11.481931209564209	1337
11.486919641494751	1358
11.491843938827515	1465
11.496846675872803	1382
11.501901626586914	1336
11.507051944732666	1454
11.512022495269775	1443
11.51705288887024	1353
11.521997213363647	1449
11.526922702789307	1508
11.531898021697998	1413
11.536941528320312	1478
11.541917085647583	1614
11.546814203262329	1552
11.551813125610352	1532
11.556841373443604	1676
11.561828851699829	1674
11.566818714141846	1591
11.571757793426514	1684
11.57676386833191	1743
11.581754207611084	1646
11.586732387542725	1680
11.591679096221924	1777
11.596647500991821	1695
11.60166311264038	1636
11.606587409973145	1753
11.611676931381226	1740
11.616669654846191	1629
11.621618270874023	1698
11.62656283378601	1753
11.631704568862915	1652
11.636635541915894	1666
11.641653776168823	1752
11.64659857749939	1669
11.651572227478027	1615
11.656601428985596	1724
11.66158390045166	1706
11.666572570800781	1604
11.671622514724731	1684
11.676621913909912	1731
11.681602716445923	1613
11.686569452285767	1625
11.691562414169312	1739
11.696598529815674	1668
11.701469898223877	1598
11.70637845993042	1700
11.711383581161499	1705
11.716379642486572	1603
11.721356391906738	1666
11.726320505142212	1725
11.731428623199463	1609
11.736378908157349	1609
11.741240501403809	1725
11.74623155593872	1668
11.751222610473633	1598
11.756234169006348	1706
11.76134467124939	1711
11.766294479370117	1598
11.771300077438354	1667
11.776310443878174	1731
11.781285524368286	1626
11.786356925964355	1626
11.791347026824951	1735
11.796331644058228	1677
11.801328420639038	1604
11.806223630905151	1710
11.811309814453125	1714
11.816402912139893	1599
11.821366548538208	1671
11.826367139816284	1744
11.831371545791626	1633
11.83634328842163	1626
11.841264724731445	1735
11.84628176689148	1678
11.85133695602417	1606
11.856328964233398	1701
11.861356496810913	1704
11.86636209487915	1604
11.871349334716797	1670
11.87635350227356	1731
11.881262302398682	1628
11.886260986328125	1626
11.891196966171265	1729
11.89632773399353	1658
11.901344537734985	1586
11.906360864639282	1692
11.911389827728271	1706
11.916277647018433	1591
11.921183824539185	1651
11.926166296005249	1723
11.931202173233032	1625
11.936185836791992	1615
11.941118955612183	1723
11.946181774139404	1675
11.951138734817505	1597
11.956056118011475	1689
11.961085796356201	1697
11.966068983078003	1584
11.971033573150635	1650
11.976014852523804	1734
11.981024742126465	1625
11.986040353775024	1605
11.99106740951538	1717
11.996083498001099	1667
12.001090288162231	1608
12.00608777999878	1709
12.011047601699829	1715
12.016113042831421	1589
12.02109980583191	1660
12.026071071624756	1741
12.031153202056885	1639
12.036034345626831	1619
12.041048049926758	1704
12.04605746269226	1642
12.051120042800903	1586
12.056166887283325	1692
12.061251163482666	1701
12.066312313079834	1580
12.071214199066162	1643
12.076159000396729	1717
12.081204891204834	1609
12.086167097091675	1613
12.091078758239746	1720
12.096208095550537	1659
12.101134061813354	1577
12.106085777282715	1682
12.111166000366211	1697
12.116211652755737	1578
12.121299505233765	1648
12.12637710571289	1712
12.131390571594238	1586
12.136378049850464	1432
12.141373872756958	1291
12.146386861801147	949
12.15125036239624	779
12.156189441680908	952
12.161107540130615	926
12.166025638580322	683
12.170818567276001	1019
12.175819873809814	1822
12.180803298950195	2413
12.185758590698242	2364
12.190776109695435	1921
12.195763111114502	1600
12.200690031051636	1564
12.20574140548706	1702
12.210792064666748	1687
12.215867042541504	1531
12.220900774002075	1597
12.225916385650635	1685
12.230931043624878	1583
12.235979795455933	1565
12.240978479385376	1666
12.24602746963501	1607
12.251060247421265	1521
12.25601315498352	1614
12.260958909988403	1635
12.265978336334229	1516
12.271053791046143	1573
12.276059865951538	1635
12.281176328659058	1520
12.286052942276001	1506
12.291118621826172	1618
12.296098232269287	1552
12.3011314868927	1466
12.30613088607788	1565
12.31110692024231	1572
12.316112995147705	1450
12.321049451828003	1505
12.325963735580444	1566
12.330990552902222	1454
12.33598780632019	1437
12.340939283370972	1544
12.346014499664307	1482
12.351064920425415	1395
12.355988025665283	1494
12.361011028289795	1501
12.366096258163452	1381
12.371107339859009	1445
12.376087188720703	1524
12.381184816360474	1427
12.386136531829834	1432
12.391076564788818	1539
12.39605164527893	1492
12.401070594787598	1436
12.406089067459106	1557
12.411118507385254	1595
12.41611099243164	1507
12.421095609664917	1600
12.426078081130981	1712
12.431166172027588	1640
12.436180114746094	1660
12.441120147705078	1786
12.446176767349243	1741
12.451197385787964	1678
12.456273078918457	1798
12.461276531219482	1813
12.466219663619995	1710
12.471301317214966	1780
12.476248741149902	1849
12.481195211410522	1744
12.486269474029541	1748
12.491352081298828	1859
12.496459722518921	1781
12.501371145248413	1705
12.506305456161499	1804
12.511330842971802	1810
12.516347885131836	1702
12.52139687538147	1763
12.526444673538208	1824
12.531394004821777	1720
12.536492109298706	1728
12.54151964187622	1828
12.546473741531372	1748
12.551509141921997	1686
12.556438684463501	1790
12.561420202255249	1779
12.566425323486328	1667
12.571479558944702	1741
12.576475143432617	1792
12.581498861312866	1677
12.586531162261963	1700
12.591521739959717	1801
12.596548318862915	1719
12.601554870605469	1664
12.606556177139282	1782
12.611581802368164	1767
12.616620302200317	1660
12.62157154083252	1736
12.626506090164185	1792
12.631529092788696	1678
12.636499404907227	1697
12.641424417495728	1789
12.646498441696167	1709
12.651421785354614	1671
12.656558275222778	1779
12.66164255142212	1752
12.666545629501343	1655
12.67160677909851	1748
12.676761388778687	1789
12.681819438934326	1668
12.686788558959961	1703
12.69180178642273	1804
12.696821212768555	1716
12.701793432235718	1667
12.706799268722534	1776
12.711841821670532	1744
12.716855525970459	1644
12.722018003463745	1736
12.726810216903687	1770
12.731870412826538	1662
12.736873149871826	1698
12.741955757141113	1790
12.746895551681519	1686
12.751841068267822	1646
12.756767988204956	1775
12.761728525161743	1759
12.766762256622314	1655
12.771705389022827	1722
12.776696681976318	1773
12.781676769256592	1671
12.786690711975098	1692
12.791682004928589	1771
12.796630144119263	1674
12.801623344421387	1632
12.806679725646973	1747
12.811701774597168	1708
12.816667795181274	1603
12.821616172790527	1707
12.826626539230347	1768
12.831607341766357	1643
12.836666822433472	1665
12.841763257980347	1749
12.846669912338257	1659
12.851642847061157	1616
12.856698513031006	1723
12.861698865890503	1700
12.866755962371826	1603
12.871860980987549	1692
12.876818418502808	1731
12.881823539733887	1607
12.886854410171509	1582
12.89184832572937	1479
12.896886110305786	1148
12.901986360549927	872
12.906934976577759	925
12.911813259124756	943
12.916712999343872	786
12.921566009521484	810
12.926484823226929	1303
12.931447505950928	1984
12.936514616012573	2581
12.941550493240356	2355
12.946565866470337	1714
12.951566457748413	1531
12.956615924835205	1756
12.961619138717651	1720
12.966545343399048	1541
12.971523761749268	1603
12.976523637771606	1668
12.981523752212524	1559
12.98654842376709	1565
12.991528272628784	1659
12.996620178222656	1570
13.001534461975098	1515
13.006500720977783	1624
13.011553049087524	1607
13.016553401947021	1494
13.021623134613037	1572
13.02662181854248	1610
13.031663417816162	1493
13.036633253097534	1518
13.041614532470703	1602
13.046626091003418	1498
13.05166220664978	1439
13.056663513183594	1554
13.06164813041687	1528
13.066669940948486	1417
13.071640491485596	1500
13.076624155044556	1532
13.08157229423523	1405
13.086708307266235	1419
13.091737508773804	1503
13.096752405166626	1402
13.101726055145264	1366
13.106787919998169	1469
13.111798524856567	1436
13.116776466369629	1340
13.121772766113281	1429
13.12673282623291	1465
13.131702423095703	1352
13.13669729232788	1384
13.141703605651855	1498
13.146767139434814	1421
13.151770830154419	1384
13.156819820404053	1516
13.161876678466797	1516
13.166904211044312	1447
13.171961069107056	1576
13.17697024345398	1645
13.181960582733154	1558
13.186956882476807	1627
13.191843748092651	1755
13.196876764297485	1688
13.201900482177734	1670
13.206972360610962	1789
13.211963891983032	1766
13.216885805130005	1671
13.221860408782959	1771
13.226813793182373	1806
13.23187780380249	1686
13.236847162246704	1725
13.241931676864624	1818
13.246851205825806	1722
13.251824378967285	1700
13.25671935081482	1813
13.261751413345337	1773
13.266693830490112	1681
13.271803855895996	1769
13.276800394058228	1795
13.28174114227295	1681
13.286733150482178	1716
13.291775941848755	1807
13.29670000076294	1695
13.301795721054077	1644
13.306791067123413	1766
13.311958312988281	1734
13.316970109939575	1623
13.32195496559143	1704
13.326984882354736	1749
13.3320152759552	1632
13.336997985839844	1671
13.342021465301514	1757
13.347089529037476	1652
13.352081060409546	1620
13.357056856155396	1733
13.362025260925293	1688
13.367025136947632	1600
13.371992826461792	1701
13.376976728439331	1734
13.381950855255127	1613
13.38703203201294	1649
13.391951084136963	1731
13.396924495697021	1643
13.401841640472412	1625
13.406827688217163	1739
13.411874771118164	1700
13.416851282119751	1597
13.421847343444824	1700
13.426928043365479	1732
13.431874990463257	1602
13.436826229095459	1645
13.441852807998657	1754
13.446836471557617	1659
13.451863527297974	1607
13.456891298294067	1717
13.461951732635498	1688
13.466919422149658	1594
13.471887111663818	1684
13.476874113082886	1725
13.481895685195923	1605
13.486868143081665	1651
13.491892576217651	1748
13.496922731399536	1643
13.501928091049194	1626
13.506835460662842	1745
13.51190185546875	1695
13.516915559768677	1595
13.521973609924316	1695
13.527002811431885	1722
13.53197455406189	1582
13.536975145339966	1611
13.542008399963379	1701
13.547067403793335	1600
13.552103757858276	1579
13.557174682617188	1698
13.562220573425293	1642
13.567275047302246	1549
13.572193622589111	1648
13.57724642753601	1656
13.58229398727417	1537
13.587310791015625	1595
13.592304944992065	1675
13.59732961654663	1551
13.602424621582031	1544
13.607510328292847	1675
13.612447738647461	1599
13.617446660995483	1489
13.62244963645935	1545
13.627526044845581	1366
13.632541179656982	1006
13.63749623298645	846
13.642412900924683	864
13.647321224212646	836
13.652183055877686	782
13.657091856002808	788
13.661927938461304	1103
13.666871547698975	1782
13.671964168548584	2540
13.676942110061646	2317
13.681990623474121	1599
13.686978101730347	1480
13.691979169845581	1671
13.697038888931274	1563
13.701932907104492	1476
13.707054376602173	1570
13.712032556533813	1547
13.717092990875244	1454
13.722191095352173	1554
13.72718095779419	1565
13.73212480545044	1436
13.73709774017334	1488
13.742082834243774	1582
13.74714994430542	1467
13.752120018005371	1425
13.757077693939209	1534
13.762166976928711	1485
13.767117738723755	1389
13.772074699401855	1490
13.777153968811035	1511
13.782121419906616	1377
13.787105560302734	1419
13.79215931892395	1516
13.79712176322937	1393
13.802141427993774	1347
13.807074069976807	1462
13.812197208404541	1405
13.817218542098999	1298
13.822259902954102	1416
13.827248573303223	1430
13.832196474075317	1276
13.837219476699829	1314
13.842171669006348	1415
13.847222328186035	1297
13.8521728515625	1250
13.857171535491943	1368
13.862114429473877	1334
13.867091417312622	1237
13.872065782546997	1344
13.877097845077515	1382
13.882121086120605	1254
13.887149810791016	1304
13.892169713973999	1424
13.897150993347168	1342
13.902121782302856	1345
13.907101392745972	1511
13.912094593048096	1507
13.91715145111084	1441
13.9221932888031	1580
13.927178621292114	1641
13.932090520858765	1539
13.937092065811157	1593
13.942071437835693	1699
13.947235584259033	1609
13.952365398406982	1591
13.957391738891602	1717
13.962453365325928	1658
13.967437744140625	1580
13.972453117370605	1701
13.977426052093506	1728
13.982345819473267	1591
13.987394571304321	1624
13.992329597473145	1726
13.997404336929321	1631
14.00237512588501	1581
14.007380962371826	1721
14.012435674667358	1688
14.017404317855835	1577
14.022440433502197	1668
14.027432918548584	1701
14.032439947128296	1570
14.037441492080688	1606
14.042439699172974	1695
14.047464847564697	1594
14.052449941635132	1567
14.057424783706665	1694
14.062455654144287	1651
14.067575931549072	1541
14.072663307189941	1636
14.077673435211182	1657
14.08275842666626	1527
14.087764263153076	1583
14.09276032447815	1672
14.097735166549683	1557
14.102757215499878	1531
14.107766151428223	1674
14.112818717956543	1626
14.117734670639038	1520
14.122769355773926	1623
14.127785921096802	1655
14.132855892181396	1526
14.137917280197144	1584
14.142942905426025	1680
14.147935152053833	1573
14.152830600738525	1556
14.157750606536865	1669
14.162779569625854	1618
14.16780424118042	1525
14.172784566879272	1621
14.177762269973755	1645
14.182676792144775	1517
14.187671422958374	1587
14.192661046981812	1692
14.197686672210693	1585
14.202722311019897	1553
14.207762956619263	1656
14.212706804275513	1600
14.217730045318604	1520
14.222759246826172	1623
14.227786540985107	1651
14.232725143432617	1524
14.237688302993774	1575
14.242547512054443	1674
14.247604608535767	1577
14.252619504928589	1551
14.257713794708252	1674
14.2627112865448	1621
14.267717361450195	1533
14.272625207901001	1629
14.277649641036987	1656
14.282732963562012	1536
14.287795066833496	1584
14.292855262756348	1658
14.29782223701477	1549
14.302905082702637	1527
14.307833194732666	1635
14.312868595123291	1576
14.317947149276733	1505
14.322949886322021	1618
14.327942371368408	1629
14.33294153213501	1503
14.337907314300537	1569
14.342867851257324	1639
14.347939491271973	1517
14.352965593338013	1511
14.358057260513306	1622
14.363049507141113	1544
14.368067026138306	1476
14.37302303314209	1592
14.378015279769897	1589
14.382967948913574	1471
14.387994527816772	1411
14.393004417419434	1220
14.398003578186035	813
14.402873039245605	677
14.407767057418823	874
14.412641763687134	891
14.41759991645813	665
14.422481775283813	871
14.427431583404541	1524
14.432437896728516	2178
14.43747591972351	2423
14.442480087280273	1976
14.447475671768188	1465
14.452380657196045	1444
14.457298040390015	1636
14.462318420410156	1561
14.467354774475098	1423
14.472427129745483	1521
14.477420330047607	1567
14.482385873794556	1446
14.487350225448608	1486
14.492307424545288	1566
14.497339248657227	1458
14.502339124679565	1426
14.507338523864746	1537
14.5122389793396	1488
14.517213106155396	1397
14.52224063873291	1503
14.527228116989136	1522
14.532260656356812	1386
14.53724718093872	1420
14.542295455932617	1508
14.54730486869812	1401
14.55234956741333	1360
14.557225227355957	1474
14.562337160110474	1438
14.567360877990723	1345
14.57235598564148	1431
14.577431678771973	1437
14.582489967346191	1299
14.58747673034668	1345
14.59243369102478	1420
14.597506761550903	1297
14.6025071144104	1281
14.607546091079712	1395
14.612468242645264	1324
14.61747145652771	1233
14.622419357299805	1348
14.627439022064209	1372
14.63243556022644	1242
14.637481689453125	1298
14.64248776435852	1390
14.647511005401611	1296
14.652426719665527	1293
14.657502889633179	1427
14.662487745285034	1412
14.667526960372925	1370
14.672565937042236	1519
14.677505731582642	1575
14.682504653930664	1479
14.687537670135498	1566
14.69267749786377	1682
14.697654008865356	1600
14.70259141921997	1616
14.707600355148315	1743
14.712575912475586	1684
14.717601537704468	1606
14.722713470458984	1720
14.727670669555664	1735
14.732649326324463	1615
14.737590074539185	1678
14.74259614944458	1765
14.747605085372925	1652
14.752601385116577	1632
14.757657289505005	1752
14.762606620788574	1696
14.767595767974854	1606
14.77269697189331	1706
14.777668476104736	1720
14.782653093338013	1608
14.787749290466309	1659
14.792667865753174	1727
14.797791242599487	1630
14.80279016494751	1629
14.807798862457275	1731
14.812779188156128	1654
14.817749261856079	1572
14.822845697402954	1684
14.827893257141113	1693
14.83280086517334	1582
14.837893724441528	1642
14.842884540557861	1707
14.84787631034851	1589
14.85291051864624	1589
14.857932567596436	1702
14.862908840179443	1638
14.867930889129639	1563
14.87299370765686	1670
14.877988338470459	1681
14.88302755355835	1576
14.888018369674683	1643
14.893023252487183	1712
14.897980690002441	1606
14.90317988395691	1607
14.90807557106018	1716
14.913079977035522	1642
14.91804814338684	1576
14.92306399345398	1686
14.928012132644653	1692
14.933010816574097	1581
14.93804931640625	1647
14.943107604980469	1722
14.948140144348145	1610
14.953167200088501	1612
14.958094835281372	1720
14.963101387023926	1647
14.96815824508667	1587
14.973175764083862	1698
14.978186845779419	1692
14.983193635940552	1578
14.988140344619751	1656
14.993125677108765	1719
14.998073101043701	1599
15.003084897994995	1605
15.008007526397705	1713
15.013010263442993	1647
15.018004179000854	1583
15.023020267486572	1685
15.028035163879395	1675
15.03307032585144	1571
15.038110733032227	1654
15.0430908203125	1712
15.04799199104309	1594
15.053000211715698	1600
15.058043003082275	1707
15.063024997711182	1627
15.068076848983765	1563
15.073073863983154	1677
15.078123807907104	1671
15.083123683929443	1551
15.088121891021729	1631
15.093176364898682	1704
15.098276376724243	1583
15.103265047073364	1577
15.108235120773315	1674
15.113140344619751	1615
15.118135929107666	1563
15.123164653778076	1671
15.128159284591675	1664
15.133068084716797	1565
15.138111591339111	1635
15.143107891082764	1696
15.148098468780518	1583
15.153099536895752	1585
15.158177375793457	1688
15.163174629211426	1618
15.168194055557251	1549
15.17319130897522	1636
15.17824673652649	1626
15.183146953582764	1525
15.188197612762451	1608
15.19321894645691	1671
15.19826865196228	1566
15.203177690505981	1570
15.208184242248535	1673
15.213179349899292	1592
15.218230724334717	1526
15.223340511322021	1639
15.228266954421997	1624
15.23338270187378	1499
15.238342046737671	1591
15.243357419967651	1653
15.248332262039185	1539
15.253331184387207	1544
15.258374452590942	1612
15.263370513916016	1366
15.26833176612854	1037
15.273340940475464	871
15.27823781967163	790
15.283053398132324	783
15.28801417350769	869
15.292932033538818	812
15.297922849655151	910
15.302839517593384	1563
15.307818412780762	2398
15.312809705734253	2406
15.317803382873535	1773
15.322813749313354	1556
15.32776689529419	1621
15.332788467407227	1556
15.337770700454712	1570
15.342988014221191	1601
15.347976922988892	1495
15.35293459892273	1492
15.35793399810791	1608
15.362892150878906	1541
15.367888927459717	1458
15.372862100601196	1559
15.377877235412598	1572
15.382887125015259	1448
15.38780951499939	1500
15.392768621444702	1571
15.397830486297607	1461
15.402776956558228	1437
15.407774448394775	1549
15.412768602371216	1499
15.417756795883179	1408
15.422684907913208	1500
15.427640914916992	1518
15.432695150375366	1397
15.437675714492798	1439
15.442768335342407	1502
15.447756052017212	1387
15.452657699584961	1366
15.457630634307861	1475
15.462651491165161	1421
15.467597723007202	1322
15.472614526748657	1406
15.47765040397644	1423
15.482739925384521	1307
15.487595319747925	1339
15.492610692977905	1412
15.497655391693115	1313
15.502609014511108	1287
15.507614612579346	1403
15.512521505355835	1373
15.517495393753052	1278
15.522496938705444	1388
15.527488708496094	1441
15.532448768615723	1350
15.537465810775757	1412
15.542459487915039	1536
15.54750943183899	1487
15.552501916885376	1504
15.55757212638855	1653
15.56257939338684	1645
15.567578315734863	1586
15.57259488105774	1699
15.577553510665894	1742
15.582530498504639	1634
15.587646007537842	1682
15.592669010162354	1775
15.597658634185791	1686
15.60273027420044	1672
15.607720136642456	1781
15.612700939178467	1736
15.617753982543945	1649
15.622859716415405	1749
15.627846240997314	1771
15.63291621208191	1659
15.637872695922852	1704
15.642749786376953	1768
15.647751569747925	1674
15.652796030044556	1664
15.657771348953247	1762
15.662779092788696	1715
15.667795896530151	1641
15.672795295715332	1739
15.677752017974854	1752
15.68273639678955	1629
15.687830448150635	1682
15.692853450775146	1749
15.697951316833496	1650
15.702861547470093	1641
15.707797765731812	1746
15.712853193283081	1700
15.717888116836548	1623
15.722900152206421	1718
15.727851867675781	1736
15.73282504081726	1622
15.73784875869751	1675
15.742829084396362	1750
15.747776985168457	1652
15.752835035324097	1640
15.757843971252441	1736
15.762833595275879	1688
15.767879724502563	1610
15.772827625274658	1703
15.777811765670776	1726
15.782906770706177	1614
15.787895679473877	1670
15.792778253555298	1754
15.797853708267212	1662
15.80289888381958	1636
15.807871341705322	1736
15.812915325164795	1691
15.81789255142212	1617
15.822990417480469	1722
15.827955722808838	1739
15.83293104171753	1627
15.837985038757324	1673
15.84307599067688	1744
15.848192691802979	1644
15.853187084197998	1650
15.858216285705566	1748
15.863207578659058	1675
15.868232250213623	1608
15.873183250427246	1710
15.87816047668457	1725
15.883117198944092	1610
15.888262033462524	1664
15.893132448196411	1736
15.89810562133789	1634
15.903127670288086	1626
15.90816879272461	1725
15.913213729858398	1668
15.918185710906982	1598
15.923185586929321	1686
15.928176403045654	1692
15.933134078979492	1598
15.938156127929688	1669
15.943175077438354	1728
15.948221445083618	1611
15.953194856643677	1606
15.958300113677979	1712
15.963275671005249	1653
15.968252420425415	1582
15.973223209381104	1677
15.978217601776123	1688
15.983238697052002	1581
15.988221883773804	1641
15.993227481842041	1710
15.998189926147461	1613
16.00321078300476	1606
16.008163928985596	1701
16.013202667236328	1644
16.018328189849854	1577
16.02333164215088	1667
16.028329610824585	1677
16.033215761184692	1577
16.038296699523926	1638
16.043315887451172	1698
16.048314571380615	1595
16.053380250930786	1596
16.058406591415405	1697
16.063408851623535	1622
16.068428993225098	1559
16.073426961898804	1670
16.078400373458862	1677
16.083437204360962	1565
16.088436126708984	1623
16.093480587005615	1685
16.09854531288147	1587
16.103641748428345	1593
16.108551263809204	1683
16.113605976104736	1616
16.118562698364258	1567
16.12355613708496	1667
16.128527641296387	1655
16.13350486755371	1549
16.138558864593506	1624
16.143617868423462	1682
16.14867353439331	1571
16.153727054595947	1582
16.15876531600952	1677
16.163815021514893	1614
16.168853282928467	1571
16.17392873764038	1671
16.178908109664917	1642
16.183858156204224	1545
16.188875675201416	1633
16.193925857543945	1679
16.198949098587036	1569
16.203976154327393	1591
16.209028482437134	1688
16.21399474143982	1605
16.2189724445343	1563
16.223899126052856	1661
16.22890567779541	1638
16.233975648880005	1536
16.23895502090454	1608
16.243940830230713	1651
16.24890398979187	1550
16.253808975219727	1569
16.258792877197266	1660
16.26384449005127	1588
16.26882266998291	1547
16.273839473724365	1649
16.278822422027588	1621
16.283851861953735	1520
16.288825750350952	1604
16.29379415512085	1650
16.298781394958496	1527
16.30373477935791	1545
16.308721780776978	1648
16.31370735168457	1583
16.318705320358276	1516
16.323721647262573	1532
16.32876181602478	1290
16.33368182182312	906
16.338605165481567	766
16.34344792366028	840
16.348392486572266	828
16.353291988372803	738
16.35813593864441	767
16.362995624542236	1137
16.36797571182251	1791
16.373061656951904	2466
16.378095865249634	2272
16.383087396621704	1630
16.38808512687683	1536
16.393174648284912	1679
16.39819097518921	1577
16.40319514274597	1515
16.408162593841553	1600
16.413093328475952	1563
16.418166399002075	1500
16.423167943954468	1584
16.42833924293518	1582
16.433425188064575	1474
16.438403367996216	1541
16.44335913658142	1599
16.448330879211426	1486
16.453335523605347	1473
16.45838737487793	1564
16.463380575180054	1505
16.46842646598816	1444
16.47342085838318	1532
16.478485345840454	1525
16.483457326889038	1418
16.488520860671997	1482
16.493530750274658	1543
16.4985191822052	1438
16.503492832183838	1432
16.50849938392639	1517
16.51348328590393	1447
16.518431901931763	1376
16.523430585861206	1461
16.52847719192505	1443
16.533512592315674	1326
16.538472175598145	1388
16.54343342781067	1442
16.54853081703186	1317
16.55355715751648	1325
16.559521675109863	1433
16.563580751419067	1361
16.568488597869873	1288
16.573453903198242	1396
16.57838249206543	1413
16.583335399627686	1312
16.588398694992065	1393
16.593424320220947	1471
16.59839677810669	1387
16.603429317474365	1414
16.608448266983032	1549
16.613445043563843	1520
16.618597507476807	1494
16.623615264892578	1632
16.62863850593567	1664
16.633683681488037	1596
16.638747215270996	1682
16.64370036125183	1757
16.648738861083984	1661
16.65370464324951	1682
16.658654928207397	1791
16.66356134414673	1725
16.66858172416687	1668
16.673635005950928	1769
16.678648233413696	1763
16.683631896972656	1668
16.68860387802124	1739
16.693748712539673	1790
16.698705911636353	1680
16.70373821258545	1693
16.708791494369507	1788
16.71391201019287	1703
16.71889591217041	1650
16.72386622428894	1750
16.72883105278015	1746
16.733829021453857	1649
16.73894238471985	1725
16.743839263916016	1773
16.748897552490234	1658
16.75390934944153	1676
16.758906364440918	1771
16.763866662979126	1691
16.768805503845215	1633
16.773801565170288	1738
16.778783082962036	1728
16.78387951850891	1632
16.78892707824707	1703
16.793882369995117	1757
16.79887080192566	1650
16.803951025009155	1667
16.808949947357178	1763
16.813886880874634	1681
16.818891763687134	1640
16.82390332221985	1755
16.828927993774414	1738
16.833969354629517	1638
16.839086055755615	1716
16.844183921813965	1758
16.84920334815979	1648
16.85420298576355	1682
16.859250783920288	1779
16.86422896385193	1690
16.869185209274292	1646
16.874162673950195	1747
16.87917971611023	1722
16.884180068969727	1633
16.889178037643433	1722
16.894158124923706	1761
16.89907169342041	1652
16.90409517288208	1683
16.909074068069458	1770
16.914103507995605	1690
16.91915011405945	1658
16.924176931381226	1750
16.929311752319336	1720
16.934229373931885	1637
16.939209938049316	1733
16.94417643547058	1767
16.949178218841553	1650
16.954160928726196	1673
16.959208250045776	1765
16.964268684387207	1672
16.969236850738525	1635
16.974242687225342	1739
16.979175806045532	1716
16.984084844589233	1632
16.989147663116455	1711
16.994130611419678	1742
16.999103784561157	1642
17.004096031188965	1674
17.009056568145752	1760
17.014176845550537	1672
17.019179344177246	1631
17.024073839187622	1737
17.02909564971924	1718
17.034029483795166	1626
17.038980722427368	1703
17.043981552124023	1756
17.048931121826172	1652
17.05396795272827	1669
17.058963537216187	1754
17.064014434814453	1672
17.069079637527466	1621
17.074125051498413	1745
17.079061269760132	1728
17.08412790298462	1618
17.089147090911865	1685
17.094074726104736	1718
17.099152326583862	1609
17.10422158241272	1647
17.109209299087524	1740
17.11417007446289	1652
17.119123220443726	1616
17.124123573303223	1725
17.129085779190063	1701
17.13410186767578	1600
17.139198303222656	1673
17.144182920455933	1701
17.149149179458618	1589
17.15414547920227	1619
17.159096717834473	1712
17.16410183906555	1629
17.169154405593872	1582
17.17412757873535	1674
17.179150819778442	1637
17.18410062789917	1439
17.18901801109314	1287
17.19406270980835	1089
17.1990909576416	779
17.204049110412598	803
17.208902835845947	968
17.21372389793396	820
17.21861505508423	741
17.223459243774414	1366
17.22848343849182	2212
17.233432054519653	2528
17.23850679397583	2140
17.243611335754395	1719
17.248605489730835	1581
17.253605842590332	1675
17.25870418548584	1736
17.263678550720215	1593
17.268760442733765	1527
17.27384066581726	1646
17.27891969680786	1642
17.283942699432373	1526
17.288920164108276	1590
17.293865442276	1637
17.29882287979126	1530
17.30376410484314	1539
17.308831930160522	1626
17.31383728981018	1547
17.318888187408447	1498
17.32395648956299	1601
17.329148769378662	1576
17.33394718170166	1474
17.338899612426758	1549
17.343971967697144	1590
17.348979234695435	1473
17.354109525680542	1481
17.359100818634033	1563
17.36409878730774	1490
17.36902642250061	1442
17.37406325340271	1532
17.37910270690918	1500
17.38403844833374	1387
17.389021635055542	1451
17.394004344940186	1487
17.399028062820435	1369
17.40400981903076	1379
17.409000873565674	1462
17.414013385772705	1379
17.419140577316284	1328
17.424086809158325	1435
17.429033994674683	1412
17.433958292007446	1306
17.4389545917511	1390
17.44393801689148	1465
17.448943853378296	1360
17.453886032104492	1390
17.45891785621643	1522
17.463924169540405	1486
17.468987226486206	1461
17.474018335342407	1605
17.478938102722168	1628
17.484036922454834	1566
17.48898673057556	1688
17.4940288066864	1763
17.49898338317871	1671
17.50401735305786	1706
17.509013414382935	1807
17.514004945755005	1734
17.518940210342407	1694
17.52390694618225	1802
17.52894616127014	1789
17.533969402313232	1690
17.538968801498413	1763
17.543965339660645	1810
17.548921585083008	1712
17.55388379096985	1731
17.55886220932007	1819
17.563966989517212	1741
17.568971872329712	1689
17.5739426612854	1779
17.578862190246582	1775
17.583815097808838	1676
17.588829040527344	1743
17.59386944770813	1800
17.59882378578186	1694
17.603922367095947	1699
17.608909368515015	1790
17.61393976211548	1713
17.61898183822632	1655
17.62398076057434	1756
17.62895178794861	1744
17.633927583694458	1643
17.638930320739746	1722
17.643925189971924	1773
17.648929119110107	1658
17.653927087783813	1664
17.658928394317627	1763
17.663942098617554	1685
17.668909549713135	1629
17.673907995224	1745
17.678882837295532	1734
17.683908700942993	1622
17.68892526626587	1691
17.69394087791443	1758
17.69892644882202	1659
17.703956842422485	1663
17.7090060710907	1751
17.71408438682556	1675
17.719138860702515	1638
17.724153757095337	1748
17.72909712791443	1721
17.734099864959717	1624
17.7391254901886	1711
17.74418568611145	1753
17.74921202659607	1643
17.754339933395386	1673
17.759255409240723	1758
17.764318704605103	1668
17.7693133354187	1627
17.77420926094055	1743
17.779192209243774	1720
17.784164905548096	1616
17.789156436920166	1696
17.794201374053955	1739
17.799155950546265	1637
17.804131984710693	1650
17.809149265289307	1736
17.814237594604492	1655
17.81917953491211	1606
17.82417893409729	1719
17.829145431518555	1713
17.83415412902832	1619
17.839179515838623	1699
17.84431743621826	1741
17.849236965179443	1633
17.854335069656372	1664
17.859203815460205	1754
17.864203691482544	1662
17.869200468063354	1609
17.87422204017639	1702
17.879316091537476	1665
17.88422465324402	1573
17.889202117919922	1652
17.894160270690918	1702
17.899159908294678	1599
17.90420627593994	1627
17.909225463867188	1709
17.914153814315796	1625
17.919305562973022	1581
17.924306869506836	1680
17.929211854934692	1652
17.934211015701294	1556
17.939204454421997	1636
17.94420576095581	1690
17.94920253753662	1580
17.954174757003784	1583
17.959126472473145	1652
17.964136362075806	1492
17.969128131866455	1245
17.97407579421997	1102
17.979098558425903	863
17.984001874923706	723
17.98893976211548	896
17.993810176849365	955
17.998762130737305	738
18.0037043094635	1092
18.00871181488037	2007
18.013659477233887	2562
18.01862859725952	2188
18.023633241653442	1713
18.02869176864624	1579
18.033715963363647	1585
18.038662910461426	1651
18.043708562850952	1634
18.048680305480957	1496
18.053757905960083	1518
18.05879235267639	1631
18.06372904777527	1553
18.0687415599823	1480
18.073772430419922	1583
18.07876443862915	1577
18.083776235580444	1466
18.088800191879272	1532
18.09381651878357	1584
18.098740816116333	1472
18.1037814617157	1470
18.10888981819153	1564
18.113980531692505	1486
18.11895775794983	1423
18.1239812374115	1527
18.128960847854614	1509
18.133937120437622	1394
18.13893413543701	1458
18.14396071434021	1507
18.148926734924316	1391
18.153979778289795	1392
18.15902280807495	1481
18.16413402557373	1397
18.169063568115234	1333
18.174038410186768	1415
18.179107666015625	1393
18.18403959274292	1279
18.189016580581665	1345
18.194066286087036	1395
18.198970556259155	1290
18.20394015312195	1293
18.208918809890747	1387
18.213943004608154	1310
18.21893811225891	1257
18.224044799804688	1374
18.22900366783142	1383
18.23406958580017	1304
18.23900818824768	1402
18.243993520736694	1489
18.249011039733887	1424
18.253965854644775	1472
18.259073495864868	1607
18.264103174209595	1569
18.26903486251831	1554
18.274025678634644	1684
18.279024839401245	1693
18.28403115272522	1615
18.2891526222229	1703
18.294089555740356	1760
18.299169063568115	1663
18.304126977920532	1680
18.309113264083862	1775
18.314156532287598	1702
18.31911849975586	1653
18.32412314414978	1758
18.329169750213623	1741
18.33423137664795	1646
18.339259386062622	1720
18.34428381919861	1760
18.349326133728027	1649
18.354131937026978	1675
18.359124660491943	1773
18.364124298095703	1680
18.369144678115845	1625
18.3742356300354	1733
18.379457473754883	1712
18.384414672851562	1609
18.3893620967865	1684
18.394368410110474	1729
18.39934492111206	1626
18.404371976852417	1652
18.40942621231079	1738
18.414419174194336	1642
18.4193594455719	1603
18.4243745803833	1713
18.429391145706177	1689
18.43441104888916	1592
18.4394690990448	1672
18.444462537765503	1708
18.449417114257812	1595
18.454371213912964	1621
18.45936131477356	1719
18.464388847351074	1638
18.469374656677246	1594
18.474478721618652	1696
18.479533910751343	1671
18.484440565109253	1582
18.489442825317383	1662
18.494460582733154	1699
18.49947500228882	1587
18.504429817199707	1618
18.509424209594727	1712
18.514416694641113	1639
18.519469738006592	1600
18.524494171142578	1692
18.529443502426147	1670
18.53445863723755	1581
18.539573192596436	1664
18.544569730758667	1694
18.549520015716553	1589
18.554494857788086	1627
18.559570789337158	1716
18.564607858657837	1624
18.569483280181885	1578
18.574488878250122	1679
18.579394102096558	1660
18.584338903427124	1568
18.58934235572815	1651
18.5944766998291	1696
18.59944987297058	1579
18.604374170303345	1603
18.60938811302185	1694
18.6144061088562	1614
18.61943006515503	1577
18.6244158744812	1683
18.629469871520996	1660
18.634357929229736	1565
18.639458894729614	1660
18.644470930099487	1705
18.6494197845459	1594
18.65441656112671	1612
18.659454107284546	1704
18.66448950767517	1630
18.66940975189209	1586
18.674455404281616	1676
18.679418087005615	1636
18.684467315673828	1533
18.6895432472229	1621
18.69448471069336	1667
18.69946575164795	1561
18.704399347305298	1581
18.709356546401978	1667
18.71433997154236	1591
18.71922993659973	1551
18.72428798675537	1655
18.729286432266235	1622
18.73419761657715	1522
18.73930549621582	1595
18.744321823120117	1646
18.749294996261597	1540
18.754303693771362	1561
18.75935697555542	1652
18.764384746551514	1553
18.7693510055542	1474
18.77445673942566	1396
18.779480457305908	1108
18.784571647644043	722
18.789427042007446	715
18.794241189956665	903
18.799094915390015	828
18.80396819114685	694
18.80888295173645	1020
18.8139750957489	1664
18.819051265716553	2326
18.82401442527771	2393
18.829026460647583	1826
18.833994150161743	1437
18.839049339294434	1565
18.844117641448975	1670
18.84910488128662	1525
18.854131937026978	1497
18.859012603759766	1596
18.864234924316406	1526
18.869318962097168	1467
18.874340772628784	1573
18.879319429397583	1560
18.88427758216858	1453
18.889243125915527	1519
18.894259452819824	1562
18.89934206008911	1457
18.904415130615234	1473
18.909376621246338	1561
18.9144446849823	1469
18.919397592544556	1418
18.924309968948364	1527
18.92925763130188	1512
18.934396982192993	1398
18.939306259155273	1462
18.944333791732788	1503
18.94929528236389	1393
18.954282522201538	1403
18.95921778678894	1484
18.964240789413452	1400
18.969294548034668	1343
18.97425365447998	1432
18.97922682762146	1398
18.984227418899536	1288
18.989310264587402	1359
18.994428157806396	1391
18.99939274787903	1273
19.004453659057617	1285
19.009535789489746	1365
19.014580965042114	1291
19.01958179473877	1259
19.024579763412476	1371
19.029585123062134	1347
19.034607648849487	1261
19.03959345817566	1365
19.044589519500732	1435
19.049586534500122	1356
19.05458688735962	1428
19.059597730636597	1566
19.064667224884033	1522
19.06956958770752	1519
19.074564695358276	1664
19.079588890075684	1672
19.084636926651	1594
19.089563131332397	1695
19.0945303440094	1750
19.099509239196777	1653
19.104485273361206	1683
19.109386682510376	1768
19.11443567276001	1690
19.119502305984497	1659
19.12452483177185	1768
19.1295223236084	1744
19.134576082229614	1642
19.139525413513184	1724
19.144511222839355	1771
19.14952540397644	1656
19.154545783996582	1663
19.159496784210205	1757
19.164481163024902	1679
19.169554471969604	1648
19.17463707923889	1754
19.179646968841553	1718
19.18468737602234	1623
19.1897611618042	1709
19.194717168807983	1741
19.19965124130249	1626
19.204678535461426	1651
19.209675312042236	1735
19.214613437652588	1650
19.219637155532837	1611
19.224578380584717	1717
19.229621648788452	1690
19.234596967697144	1596
19.23959255218506	1683
19.244619131088257	1721
19.24963068962097	1617
19.25458526611328	1640
19.25948929786682	1731
19.264570713043213	1654
19.2695472240448	1612
19.27460765838623	1708
19.27957057952881	1693
19.284604787826538	1604
19.289597272872925	1687
19.29460620880127	1723
19.2996244430542	1618
19.304649829864502	1648
19.309667348861694	1736
19.31463360786438	1652
19.31961441040039	1604
19.324610710144043	1708
19.329657793045044	1686
19.33462405204773	1596
19.339612245559692	1683
19.34463620185852	1723
19.34960436820984	1616
19.354632139205933	1636
19.359613180160522	1727
19.36464786529541	1647
19.369663953781128	1611
19.37473487854004	1713
19.37974452972412	1680
19.38470697402954	1593
19.389678239822388	1679
19.394676208496094	1715
19.399794101715088	1601
19.4047372341156	1631
19.409770250320435	1717
19.41480302810669	1626
19.41986608505249	1590
19.424814462661743	1689
19.429943323135376	1664
19.434906721115112	1583
19.439914226531982	1674
19.444885730743408	1699
19.449873208999634	1590
19.45488929748535	1627
19.459882259368896	1706
19.464849710464478	1619
19.469874143600464	1586
19.474862813949585	1688
19.479838848114014	1649
19.484882831573486	1558
19.489885807037354	1651
19.4947988986969	1687
19.499802589416504	1572
19.504804849624634	1607
19.50985550880432	1689
19.51488494873047	1591
19.51996350288391	1558
19.524996995925903	1672
19.52996015548706	1642
19.534914016723633	1549
19.539842128753662	1640
19.544835567474365	1671
19.54986262321472	1563
19.554814338684082	1597
19.55987310409546	1683
19.564882516860962	1593
19.56983733177185	1563
19.57481598854065	1661
19.57990264892578	1631
19.584906101226807	1545
19.589882850646973	1625
19.594865322113037	1656
19.599828243255615	1555
19.604828596115112	1597
19.60981059074402	1684
19.61477565765381	1594
19.619731664657593	1563
19.624784469604492	1667
19.62990403175354	1643
19.634931564331055	1557
19.639912843704224	1636
19.64485239982605	1661
19.64985752105713	1539
19.65481209754944	1564
19.659825325012207	1654
19.66480278968811	1576
19.669826984405518	1539
19.67478609085083	1646
19.679828882217407	1623
19.684857845306396	1528
19.689814805984497	1616
19.69480299949646	1643
19.699830532073975	1528
19.704834461212158	1560
19.70988965034485	1640
19.714826345443726	1556
19.71984577178955	1521
19.724832773208618	1623
19.72986340522766	1595
19.734869241714478	1497
19.73991370201111	1489
19.744900226593018	1290
19.74986720085144	886
19.75478768348694	721
19.759743452072144	858
19.7646541595459	852
19.76950430870056	666
19.774563789367676	764
19.77945637702942	1267
19.784401893615723	1922
19.78942584991455	2467
19.79445743560791	2171
19.79945421218872	1549
19.80443525314331	1466
19.809482097625732	1646
19.814532041549683	1583
19.819581985473633	1494
19.824515342712402	1578
19.829516172409058	1564
19.83452558517456	1468
19.83960723876953	1549
19.84463858604431	1584
19.84960126876831	1467
19.85460591316223	1485
19.85973072052002	1574
19.86473059654236	1480
19.869837045669556	1439
19.874828338623047	1540
19.87978482246399	1513
19.884704113006592	1414
19.88973045349121	1489
19.89483642578125	1530
19.899739265441895	1412
19.904683351516724	1435
19.90968918800354	1522
19.914721488952637	1436
19.91968607902527	1377
19.924718856811523	1473
19.929766416549683	1446
19.93484401702881	1341
19.93987274169922	1415
19.944883346557617	1447
19.9499089717865	1322
19.95497417449951	1337
19.95998525619507	1413
19.964982986450195	1316
19.969990015029907	1276
19.974975109100342	1377
19.979959964752197	1344
19.984944343566895	1258
19.989938974380493	1353
19.994948625564575	1394
20.000020503997803	1288
20.00499200820923	1328
20.009966611862183	1435
20.015018224716187	1370
20.02009892463684	1373
20.025148153305054	1515
20.030150890350342	1521
20.035330772399902	1481
20.04025411605835	1611
20.04523229598999	1671
20.050278186798096	1597
20.055302381515503	1665
20.060227870941162	1755
20.06523060798645	1684
20.070253610610962	1678
20.075255632400513	1785
20.0801944732666	1740
20.085227489471436	1655
20.090246438980103	1757
20.095176935195923	1785
20.10022807121277	1677
20.105254888534546	1723
20.110267162322998	1802
20.11542248725891	1710
20.120407581329346	1685
20.125359773635864	1782
20.130257606506348	1738
20.13527250289917	1658
20.140249252319336	1745
20.14527988433838	1770
20.15028667449951	1669
20.15533709526062	1709
20.160298585891724	1786
20.165406465530396	1687
20.1704261302948	1665
20.175392389297485	1765
20.180358409881592	1725
20.185412645339966	1648
20.19039273262024	1737
20.19538378715515	1754
20.200414657592773	1649
20.205415964126587	1705
20.210456371307373	1781
20.215521335601807	1678
20.220513105392456	1661
20.225427865982056	1768
20.23048734664917	1721
20.235540628433228	1647
20.24043869972229	1739
20.245387315750122	1761
20.250354290008545	1655
20.255361795425415	1706
20.260412454605103	1784
20.26542043685913	1685
20.27056050300598	1674
20.27559781074524	1776
20.28052258491516	1732
20.285475730895996	1653
20.290448904037476	1747
20.295480728149414	1772
20.30049467086792	1671
20.305493354797363	1716
20.31045436859131	1791
20.315431594848633	1700
20.320431232452393	1681
20.325404167175293	1784
20.330453634262085	1746
20.335428476333618	1668
20.340367555618286	1761
20.345341444015503	1782
20.350353002548218	1677
20.355441331863403	1725
20.360439777374268	1801
20.36534357070923	1706
20.370370149612427	1691
20.375364780426025	1801
20.380411386489868	1749
20.3854398727417	1668
20.39043664932251	1762
20.395409107208252	1788
20.40038776397705	1675
20.405335187911987	1723
20.410340309143066	1803
20.41525673866272	1717
20.42020869255066	1689
20.425276517868042	1790
20.430322647094727	1747
20.435333251953125	1674
20.440277099609375	1766
20.445234060287476	1791
20.450209379196167	1681
20.455185413360596	1721
20.46015977859497	1807
20.465178728103638	1719
20.470152139663696	1684
20.47508978843689	1790
20.480031490325928	1756
20.485058307647705	1673
20.49022388458252	1760
20.495187759399414	1786
20.500154495239258	1677
20.505202770233154	1713
20.51025152206421	1801
20.515289306640625	1717
20.520285606384277	1686
20.525259256362915	1782
20.530367612838745	1742
20.535362243652344	1661
20.54036545753479	1759
20.54536509513855	1785
20.55034565925598	1672
20.555336952209473	1720
20.56035041809082	1803
20.565364360809326	1700
20.5703604221344	1679
20.575448989868164	1791
20.58044719696045	1744
20.585484981536865	1654
20.59042477607727	1744
20.595418453216553	1771
20.600409030914307	1660
20.605417490005493	1706
20.61048984527588	1785
20.61549210548401	1687
20.620458364486694	1658
20.62542963027954	1757
20.63051748275757	1708
20.635513305664062	1637
20.64048719406128	1725
20.645514249801636	1742
20.650506019592285	1634
20.655481100082397	1683
20.660486698150635	1754
20.665565967559814	1673
20.67053747177124	1668
20.67554521560669	1751
20.680485725402832	1683
20.685467004776	1615
20.69041347503662	1730
20.695439338684082	1760
20.70054316520691	1635
20.705520391464233	1672
20.710532188415527	1757
20.71549701690674	1664
20.720538854599	1642
20.72556185722351	1745
20.730541229248047	1687
20.735443115234375	1606
20.740556001663208	1709
20.745565176010132	1732
20.750538110733032	1622
20.755584001541138	1667
20.760637521743774	1697
20.765700817108154	1403
20.770713329315186	1118
20.77568507194519	964
20.780579566955566	866
20.785438060760498	864
20.790397882461548	893
20.79530954360962	803
20.800215244293213	987
20.805174827575684	1703
20.810105562210083	2497
20.815093278884888	2425
20.82011318206787	1832
20.82513427734375	1665
20.8300940990448	1693
20.835085153579712	1633
20.840153694152832	1669
20.845237255096436	1675
20.850257635116577	1576
20.855427742004395	1624
20.860503673553467	1697
20.86552405357361	1593
20.87051820755005	1571
20.8755145072937	1671
20.8804874420166	1617
20.88548707962036	1528
20.890462398529053	1615
20.895511150360107	1632
20.900532960891724	1518
20.90558123588562	1564
20.910635948181152	1635
20.91563844680786	1520
20.920767784118652	1496
20.925816774368286	1607
20.93071174621582	1556
20.935706615447998	1458
20.940712213516235	1540
20.94576358795166	1547
20.950846195220947	1432
20.955923080444336	1484
20.960899829864502	1541
20.965960025787354	1423
20.970934629440308	1401
20.97596049308777	1492
20.980958700180054	1422
20.985920906066895	1340
20.990949392318726	1427
20.996012687683105	1432
21.001015424728394	1318
21.00607466697693	1378
21.01107907295227	1436
21.016116857528687	1338
21.021151542663574	1357
21.026071548461914	1470
21.031158924102783	1411
21.036133289337158	1363
21.041163206100464	1492
21.04617953300476	1533
21.051140546798706	1468
21.05607271194458	1565
21.06103825569153	1663
21.066033363342285	1598
21.071027278900146	1627
21.076040744781494	1757
21.081090211868286	1714
21.086137294769287	1653
21.091091871261597	1761
21.096110343933105	1781
21.10119080543518	1681
21.106400966644287	1745
21.111411571502686	1802
21.1164288520813	1706
21.12148404121399	1723
21.126380443572998	1813
21.131415843963623	1742
21.13644504547119	1683
21.141411781311035	1776
21.14645791053772	1763
21.151525735855103	1666
21.156481981277466	1737
21.161484718322754	1787
21.166452407836914	1675
21.171474933624268	1680
21.17636203765869	1775
21.1814386844635	1700
21.186363220214844	1648
21.191367149353027	1744
21.196357011795044	1734
21.20133924484253	1628
21.206339836120605	1689
21.211338758468628	1738
21.216337203979492	1638
21.22136902809143	1647
21.226359844207764	1732
21.231361389160156	1664
21.23638415336609	1618
21.241387128829956	1712
21.246389865875244	1702
21.25138783454895	1606
21.256494283676147	1677
21.261536598205566	1723
21.26656484603882	1615
21.27153468132019	1637
21.276574850082397	1735
21.281590461730957	1658
21.286589860916138	1604
21.291616201400757	1702
21.296632289886475	1684
21.30153489112854	1595
21.30664086341858	1674
21.31164312362671	1714
21.316691637039185	1607
21.32168745994568	1633
21.326764583587646	1721
21.33181929588318	1634
21.336860179901123	1595
21.341843605041504	1705
21.34681749343872	1683
21.351993560791016	1585
21.356958150863647	1666
21.361948251724243	1702
21.367071628570557	1591
21.37204670906067	1624
21.377046585083008	1698
21.382065773010254	1622
21.387091398239136	1593
21.39207887649536	1691
21.397111415863037	1655
21.40207576751709	1569
21.40718698501587	1655
21.41220450401306	1689
21.41726016998291	1576
21.422237634658813	1614
21.42718744277954	1685
21.432165145874023	1598
21.437134742736816	1570
21.442136764526367	1672
21.44710922241211	1633
21.452130794525146	1549
21.457154273986816	1641
21.462170362472534	1665
21.467169046401978	1543
21.47226309776306	1587
21.47721242904663	1667
21.482280015945435	1563
21.487284898757935	1538
21.49233651161194	1643
21.497366666793823	1595
21.502284049987793	1507
21.507293939590454	1589
21.512226343154907	1620
21.51725721359253	1515
21.522337436676025	1566
21.52724289894104	1654
21.53220796585083	1558
21.537259817123413	1514
21.542343378067017	1614
21.547295331954956	1595
21.552242279052734	1519
21.557260513305664	1612
21.562297344207764	1642
21.56725573539734	1528
21.572340488433838	1569
21.57732892036438	1638
21.582311868667603	1550
21.587367296218872	1530
21.59237575531006	1627
21.59734582901001	1578
21.60234022140503	1499
21.607341289520264	1595
21.61242651939392	1609
21.61739754676819	1498
21.622488737106323	1536
21.627512454986572	1536
21.632488489151	1226
21.637468814849854	950
21.642348051071167	833
21.64726209640503	750
21.652210474014282	717
21.65710759162903	776
21.661969423294067	740
21.666794538497925	993
21.67168116569519	1789
21.676710844039917	2544
21.681747913360596	2218
21.68679714202881	1588
21.691864490509033	1530
21.696879625320435	1612
21.701956510543823	1522
21.706926107406616	1541
21.711814165115356	1550
21.716742038726807	1451
21.721739292144775	1480
21.72673726081848	1564
21.731688022613525	1482
21.73670983314514	1421
21.741730213165283	1520
21.746703147888184	1502
21.751850366592407	1404
21.756842613220215	1473
21.761831521987915	1508
21.766758918762207	1400
21.771742820739746	1417
21.776768445968628	1510
21.7817599773407	1423
21.786758184432983	1370
21.791799306869507	1466
21.796794414520264	1437
21.801790714263916	1323
21.806785821914673	1398
21.81183671951294	1441
21.81677007675171	1323
21.821760177612305	1328
21.826786518096924	1412
21.831791877746582	1320
21.836840867996216	1256
21.841856002807617	1353
21.846861362457275	1321
21.851990222930908	1210
21.85699772834778	1278
21.861966848373413	1314
21.867024183273315	1190
21.872046947479248	1219
21.877102375030518	1319
21.882039785385132	1237
21.887012720108032	1193
21.892017126083374	1304
21.896949768066406	1298
21.90200662612915	1239
21.907177209854126	1355
21.912209272384644	1423
21.91717505455017	1356
21.9221510887146	1430
21.927034378051758	1548
21.932166576385498	1506
21.937192916870117	1514
21.9422607421875	1636
21.94726538658142	1621
21.95223093032837	1551
21.95717191696167	1645
21.962144136428833	1685
21.96706247329712	1583
21.97209596633911	1620
21.977094650268555	1711
21.982059001922607	1629
21.987050533294678	1586
21.99204683303833	1687
21.99712085723877	1651
22.002231121063232	1565
22.00738024711609	1655
22.01239514350891	1683
22.01747417449951	1570
22.02249050140381	1608
22.02754497528076	1688
22.03254270553589	1597
22.037529706954956	1572
22.04249143600464	1674
22.047465324401855	1627
22.052464246749878	1544
22.057491540908813	1636
22.062618732452393	1651
22.067620515823364	1541
22.07258701324463	1594
22.077621698379517	1667
22.08258628845215	1571
22.08759617805481	1559
22.092623233795166	1660
22.097690105438232	1604
22.102702379226685	1527
22.107685565948486	1626
22.1127028465271	1643
22.11771821975708	1529
22.122668981552124	1585
22.12772226333618	1656
22.13276743888855	1558
22.137735605239868	1540
22.142568111419678	1645
22.14764928817749	1603
22.152811527252197	1529
22.15784525871277	1620
22.162943601608276	1623
22.167880296707153	1522
22.172881364822388	1593
22.177844524383545	1662
22.18281602859497	1554
22.18783926963806	1548
22.192832469940186	1653
22.197789907455444	1596
22.202795267105103	1513
22.207791805267334	1614
22.21285653114319	1633
22.217950344085693	1530
22.223024606704712	1579
22.227948427200317	1642
22.23292326927185	1544
22.23794460296631	1541
22.242925882339478	1639
22.24794030189514	1583
22.252934455871582	1511
22.257851123809814	1597
22.26292395591736	1610
22.267967462539673	1506
22.27299976348877	1565
22.27807378768921	1635
22.283038854599	1539
22.288007974624634	1533
22.292946577072144	1630
22.297968864440918	1570
22.3030743598938	1507
22.308064937591553	1607
22.31305456161499	1616
22.31808042526245	1508
22.32309055328369	1566
22.328116416931152	1633
22.333168745040894	1531
22.338188886642456	1538
22.343249082565308	1638
22.348180532455444	1564
22.353209018707275	1498
22.358162879943848	1584
22.363239765167236	1583
22.368184804916382	1487
22.37319803237915	1557
22.378140926361084	1625
22.383169174194336	1523
22.388161659240723	1518
22.393121242523193	1608
22.39814591407776	1543
22.403230905532837	1488
22.40820598602295	1577
22.4131920337677	1573
22.418217658996582	1475
22.423160552978516	1541
22.428090572357178	1601
22.43306612968445	1494
22.4381046295166	1472
22.44307804107666	1415
22.448212146759033	1095
22.45321249961853	753
22.458061456680298	713
22.462924003601074	805
22.467899084091187	776
22.47278380393982	715
22.477692365646362	908
22.482544660568237	1426
22.487691640853882	2172
22.49272084236145	2475
22.497663021087646	1919
22.50262761116028	1438
22.507675170898438	1544
22.512689352035522	1629
22.51769518852234	1484
22.52264642715454	1490
22.527681827545166	1563
22.532787799835205	1481
22.53772759437561	1458
22.54257035255432	1557
22.547614812850952	1509
22.552618741989136	1420
22.557635068893433	1509
22.56271195411682	1524
22.567784547805786	1410
22.572772979736328	1456
22.577697038650513	1525
22.582688808441162	1429
22.587738037109375	1402
22.592693090438843	1504
22.597663402557373	1456
22.60268783569336	1364
22.607717990875244	1454
22.612699508666992	1468
22.617658376693726	1353
22.622721433639526	1386
22.627824306488037	1453
22.632734298706055	1359
22.63773536682129	1329
22.642719745635986	1416
22.64770221710205	1355
22.65281105041504	1268
22.65780544281006	1351
22.662787675857544	1366
22.66778326034546	1239
22.672733068466187	1274
22.677737712860107	1346
22.68281650543213	1249
22.68777561187744	1226
22.69264245033264	1336
22.697689056396484	1308
22.70264196395874	1218
22.707643032073975	1320
22.712637186050415	1377
22.717678785324097	1305
22.72262668609619	1382
22.727638959884644	1504
22.732661247253418	1450
22.737579822540283	1472
22.742611408233643	1626
22.747599840164185	1627
22.75258445739746	1568
22.75762104988098	1677
22.76270866394043	1717
22.76774525642395	1623
22.772728443145752	1673
22.777713775634766	1761
22.782756090164185	1684
22.787725687026978	1661
22.7925226688385	1761
22.797597885131836	1721
22.8026180267334	1635
22.80756688117981	1724
22.812548875808716	1756
22.81755304336548	1645
22.82254385948181	1683
22.827509880065918	1765
22.83248996734619	1680
22.837491750717163	1645
22.842556953430176	1749
22.847577571868896	1715
22.852540254592896	1633
22.85751724243164	1719
22.862489938735962	1751
22.867555856704712	1638
22.872663736343384	1666
22.877695083618164	1742
22.882728576660156	1652
22.88775086402893	1633
22.892823457717896	1732
22.897827625274658	1686
22.902795553207397	1604
22.907792329788208	1700
22.912822484970093	1722
22.917818307876587	1610
22.922832012176514	1659
22.927875518798828	1739
22.932812690734863	1652
22.937838554382324	1635
22.94284987449646	1734
22.947851181030273	1687
22.95284867286682	1613
22.957854747772217	1706
22.962892770767212	1718
22.96794891357422	1612
22.972921133041382	1669
22.977916717529297	1738
22.982887268066406	1633
22.9878830909729	1617
22.992921113967896	1728
22.997989177703857	1682
23.00301718711853	1614
23.00798535346985	1708
23.013028383255005	1714
23.018052577972412	1603
23.023046493530273	1668
23.02802586555481	1737
23.033055543899536	1636
23.038066387176514	1626
23.043070554733276	1722
23.04811692237854	1674
23.0532066822052	1609
23.05824875831604	1699
23.063154458999634	1706
23.068150281906128	1602
23.07315444946289	1662
23.07817006111145	1724
23.083181858062744	1625
23.08826756477356	1626
23.093279123306274	1722
23.0982985496521	1660
23.103318214416504	1592
23.108404397964478	1700
23.113361120224	1705
23.118312120437622	1596
23.123408317565918	1653
23.128392457962036	1717
23.133395671844482	1618
23.13844633102417	1614
23.143484592437744	1705
23.148442029953003	1641
23.15339207649231	1586
23.15834379196167	1682
23.163403272628784	1678
23.168375968933105	1575
23.17353105545044	1645
23.178467750549316	1704
23.183499813079834	1595
23.18847346305847	1602
23.193413734436035	1707
23.198441982269287	1639
23.20352029800415	1581
23.208508253097534	1685
23.21357250213623	1678
23.21853017807007	1573
23.223571300506592	1646
23.228583574295044	1710
23.233553171157837	1598
23.23864507675171	1598
23.24358582496643	1704
23.248544931411743	1638
23.253499507904053	1563
23.25845241546631	1654
23.263423681259155	1659
23.26842713356018	1561
23.27345848083496	1633
23.278421640396118	1686
23.2834210395813	1583
23.288339853286743	1584
23.293347358703613	1680
23.298312664031982	1616
23.303289890289307	1553
23.308262586593628	1651
23.313235998153687	1659
23.31828761100769	1550
23.32326030731201	1608
23.32835626602173	1666
23.333259344100952	1545
23.338295698165894	1368
23.343202590942383	1209
23.34825301170349	879
23.353097200393677	706
23.35800552368164	903
23.36286687850952	943
23.367727756500244	695
23.372597694396973	909
23.377468824386597	1630
23.382495403289795	2281
23.38749384880066	2410
23.392454862594604	2004
23.39746069908142	1589
23.402443885803223	1500
23.40742015838623	1643
23.41247320175171	1650
23.41754388809204	1504
23.4225754737854	1551
23.427659273147583	1643
23.432674169540405	1547
23.437692642211914	1503
23.442547082901	1601
23.447614431381226	1567
23.45258378982544	1476
23.457568883895874	1571
23.462482452392578	1591
23.467516899108887	1479
23.472491979599	1510
23.477514028549194	1594
23.482572317123413	1499
23.48760461807251	1460
23.492579698562622	1550
23.497535467147827	1519
23.50248670578003	1427
23.507565021514893	1509
23.51261281967163	1538
23.517528295516968	1416
23.522493839263916	1435
23.527498245239258	1516
23.532477378845215	1419
23.53750777244568	1366
23.542452096939087	1454
23.54754638671875	1428
23.55249333381653	1326
23.55748701095581	1390
23.562427282333374	1413
23.567492246627808	1290
23.572484493255615	1316
23.577577352523804	1407
23.582667350769043	1310
23.587613344192505	1271
23.592636346817017	1388
23.59765887260437	1370
23.602752447128296	1293
23.607736110687256	1398
23.612666606903076	1472
23.617711067199707	1387
23.622645139694214	1459
23.627650260925293	1588
23.63262128829956	1548
23.63769221305847	1552
23.642738103866577	1689
23.6476411819458	1690
23.652621269226074	1621
23.657618522644043	1723
23.662619590759277	1775
23.667665004730225	1676
23.67261528968811	1716
23.67768430709839	1810
23.682762622833252	1731
23.68773603439331	1702
23.692595720291138	1798
23.69765043258667	1764
23.702762603759766	1674
23.70789647102356	1765
23.712846040725708	1793
23.71788501739502	1680
23.722867965698242	1719
23.727899074554443	1798
23.732912302017212	1704
23.738020181655884	1681
23.742981672286987	1780
23.74796223640442	1729
23.752911806106567	1642
23.757939100265503	1733
23.76289963722229	1762
23.767897129058838	1655
23.77296543121338	1693
23.777961015701294	1762
23.782941341400146	1673
23.7879376411438	1655
23.792941093444824	1756
23.797961711883545	1711
23.80298113822937	1628
23.8080472946167	1717
23.813019514083862	1739
23.81809711456299	1627
23.823112964630127	1689
23.828117847442627	1764
23.83311700820923	1665
23.838071823120117	1648
23.84307098388672	1751
23.84803605079651	1710
23.853060960769653	1630
23.858070373535156	1714
23.863013744354248	1734
23.868045330047607	1629
23.873120307922363	1681
23.87811589241028	1758
23.88314437866211	1662
23.88819980621338	1643
23.893165111541748	1755
23.89807629585266	1707
23.90308403968811	1628
23.908071041107178	1715
23.91305136680603	1733
23.918086051940918	1626
23.923229932785034	1681
23.928226232528687	1752
23.933228254318237	1654
23.93825888633728	1641
23.943185091018677	1741
23.948160886764526	1691
23.953202724456787	1618
23.958199739456177	1713
23.963289260864258	1726
23.96825909614563	1620
23.973204612731934	1668
23.978148698806763	1739
23.983158111572266	1638
23.988155364990234	1618
23.99311399459839	1724
23.998139142990112	1680
24.003162622451782	1610
24.008131504058838	1700
24.01304292678833	1716
24.018092155456543	1594
24.023087739944458	1646
24.02806544303894	1727
24.033031225204468	1627
24.03805923461914	1604
24.04309368133545	1706
24.048062324523926	1669
24.05307388305664	1595
24.058069467544556	1686
24.0630464553833	1705
24.068018913269043	1591
24.073052644729614	1639
24.078076124191284	1714
24.083022356033325	1624
24.088082790374756	1604
24.093050718307495	1696
24.09807300567627	1648
24.103026628494263	1567
24.108073711395264	1652
24.113022804260254	1666
24.11801552772522	1555
24.122995853424072	1602
24.127995252609253	1675
24.133074522018433	1573
24.138036727905273	1538
24.143105268478394	1624
24.1480872631073	1597
24.153072595596313	1555
24.158082962036133	1653
24.163047075271606	1663
24.16808319091797	1544
24.17310857772827	1598
24.178128004074097	1683
24.183128833770752	1598
24.188122987747192	1588
24.19323229789734	1691
24.1982319355011	1641
24.203258752822876	1567
24.208212852478027	1659
24.21324348449707	1674
24.21826171875	1571
24.223373651504517	1627
24.228289127349854	1692
24.233263969421387	1589
24.23823380470276	1575
24.243242025375366	1679
24.24821376800537	1635
24.253212451934814	1554
24.258253812789917	1567
24.26316475868225	1372
24.268152952194214	991
24.273009538650513	815
24.277893543243408	887
24.282769680023193	884
24.28764009475708	764
24.292601823806763	803
24.29751181602478	1190
24.302477836608887	1800
24.307469844818115	2472
24.31247591972351	2358
24.317389011383057	1713
24.322367191314697	1516
24.327367305755615	1668
