0.00010013580322265625	1529
0.00028896331787109375	1594
0.0004336833953857422	1647
0.0005736351013183594	1549
0.0007135868072509766	1569
0.0008516311645507812	1631
0.0009953975677490234	1544
0.0011398792266845703	1517
0.0012714862823486328	1608
0.001402139663696289	1566
0.0015337467193603516	1495
0.0016751289367675781	1573
0.0018079280853271484	1579
0.0019385814666748047	1476
0.002069711685180664	1521
0.002202749252319336	1581
0.0023331642150878906	1479
0.0024700164794921875	1450
0.0025997161865234375	1541
0.002730846405029297	1489
0.0028619766235351562	1410
0.0029926300048828125	1480
0.0031239986419677734	1493
0.003256082534790039	1388
0.003386259078979492	1422
0.0035169124603271484	1475
0.003645658493041992	1377
0.0037775039672851562	1342
0.003908872604370117	1425
0.004245758056640625	1653
0.007472515106201172	1703
0.012450695037841797	1811
0.017367124557495117	1704
0.02233099937438965	1668
0.027365446090698242	1791
0.032320261001586914	1761
0.03737044334411621	1658
0.04245185852050781	1762
0.04743170738220215	1811
0.05242800712585449	1680
0.05735516548156738	1710
0.0623626708984375	1806
0.06746268272399902	1687
0.0724172592163086	1639
0.0774834156036377	1742
0.08247780799865723	1692
0.08748030662536621	1587
0.09252500534057617	1695
0.09750747680664062	1744
0.1024775505065918	1626
0.10750770568847656	1640
0.11251044273376465	1725
0.11759281158447266	1648
0.12269926071166992	1621
0.1276416778564453	1716
0.13273000717163086	1650
0.13765478134155273	1562
0.1426708698272705	1662
0.1475830078125	1699
0.15255093574523926	1557
0.1575183868408203	1541
0.16252827644348145	1439
0.16760563850402832	1094
0.17258119583129883	826
0.17752981185913086	872
0.1823718547821045	1043
0.1874074935913086	1090
0.19244813919067383	1224
0.19742321968078613	1592
0.20238709449768066	2003
0.20742321014404297	2459
0.21239304542541504	2289
0.2173929214477539	1664
0.22240185737609863	1435
0.2273879051208496	1590
0.23232769966125488	1591
0.2373335361480713	1468
0.2423710823059082	1517
0.24733710289001465	1556
0.2523529529571533	1459
0.2573261260986328	1504
0.26236987113952637	1581
0.2674398422241211	1457
0.27248644828796387	1428
0.2775111198425293	1546
0.2825031280517578	1517
0.2875361442565918	1405
0.2925100326538086	1456
0.29751133918762207	1478
0.30260396003723145	1368
0.3076894283294678	1415
0.3126096725463867	1499
0.31774401664733887	1386
0.32263660430908203	1345
0.3276946544647217	1446
0.3327372074127197	1392
0.3378915786743164	1318
0.34282517433166504	1409
0.34786248207092285	1399
0.3528289794921875	1272
0.3577916622161865	1314
0.3627896308898926	1402
0.36776232719421387	1287
0.3728311061859131	1257
0.3778190612792969	1346
0.38275980949401855	1280
0.3877830505371094	1208
0.3929140567779541	1325
0.39793920516967773	1343
0.40308165550231934	1241
0.40804386138916016	1301
0.41312146186828613	1365
0.4180440902709961	1267
0.42301106452941895	1293
0.4279625415802002	1412
0.43291521072387695	1375
0.4379403591156006	1349
0.4429643154144287	1486
0.44789791107177734	1530
0.45290088653564453	1458
0.457918643951416	1547
0.4629359245300293	1631
0.46804165840148926	1544
0.47310876846313477	1562
0.4781014919281006	1668
0.48311781883239746	1609
0.4881439208984375	1558
0.49314332008361816	1650
0.498105525970459	1624
0.5030386447906494	1523
0.5080134868621826	1599
0.5129678249359131	1658
0.5180213451385498	1558
0.5230691432952881	1583
0.5280320644378662	1668
0.5329380035400391	1585
0.5379621982574463	1527
0.5429873466491699	1625
0.5479369163513184	1606
0.5529968738555908	1509
0.5579383373260498	1578
0.5629367828369141	1627
0.5679013729095459	1510
0.5729367733001709	1513
0.5779352188110352	1603
0.5829317569732666	1534
0.5880782604217529	1507
0.5930953025817871	1625
0.5980331897735596	1597
0.6031086444854736	1484
0.6080739498138428	1536
0.6131486892700195	1577
0.6182236671447754	1492
0.6231992244720459	1538
0.6282553672790527	1624
0.6333131790161133	1531
0.6382696628570557	1488
0.6432332992553711	1595
0.6482219696044922	1571
0.6532549858093262	1498
0.6582627296447754	1580
0.6631801128387451	1601
0.6681749820709229	1511
0.6731178760528564	1588
0.6780815124511719	1674
0.6831827163696289	1564
0.6881828308105469	1506
0.6931436061859131	1586
0.6981604099273682	1556
0.703230619430542	1504
0.7081997394561768	1581
0.7132034301757812	1581
0.7181258201599121	1472
0.7230613231658936	1511
0.7281613349914551	1590
0.7331516742706299	1510
0.7381994724273682	1492
0.7431697845458984	1584
0.7481513023376465	1563
0.7531623840332031	1499
0.7581391334533691	1542
0.763110876083374	1536
0.7681596279144287	1454
0.7732095718383789	1521
0.7782049179077148	1595
0.7831645011901855	1496
0.7881133556365967	1452
0.7930099964141846	1527
0.7980091571807861	1367
0.8030526638031006	1069
0.8080003261566162	907
0.8129281997680664	749
0.8177785873413086	686
0.8226513862609863	910
0.8276002407073975	1074
0.8326091766357422	1164
0.8376548290252686	1659
0.8426542282104492	2355
0.847661018371582	2412
0.8526229858398438	1762
0.8575828075408936	1457
0.86252760887146	1526
0.8675904273986816	1504
0.8725438117980957	1478
0.8774945735931396	1501
0.8824679851531982	1430
0.8874967098236084	1406
0.8924860954284668	1492
0.8974268436431885	1454
0.9024772644042969	1374
0.9075767993927002	1451
0.9125325679779053	1490
0.9175901412963867	1381
0.9225733280181885	1386
0.9275994300842285	1456
0.9325628280639648	1390
0.9375720024108887	1339
0.942683219909668	1431
0.9476103782653809	1422
0.952629566192627	1334
0.9577362537384033	1384
0.9627375602722168	1416
0.9677529335021973	1323
0.9726896286010742	1341
0.9776687622070312	1397
0.9826827049255371	1311
0.9877495765686035	1270
0.9926676750183105	1350
0.9975993633270264	1322
1.0026228427886963	1241
1.0077028274536133	1303
1.0126841068267822	1336
1.0176856517791748	1243
1.0226478576660156	1269
1.0277185440063477	1340
1.032618761062622	1268
1.0376253128051758	1233
1.042607069015503	1323
1.0475788116455078	1325
1.052593469619751	1271
1.0576019287109375	1336
1.0625755786895752	1375
1.0675029754638672	1320
1.0724902153015137	1398
1.0775377750396729	1510
1.0825676918029785	1468
1.0875740051269531	1469
1.09256911277771	1590
1.0974981784820557	1593
1.1024973392486572	1536
1.1075563430786133	1621
1.1125071048736572	1669
1.117565631866455	1589
1.1224892139434814	1627
1.1275005340576172	1704
1.1325035095214844	1630
1.1375303268432617	1596
1.1425702571868896	1694
1.1475892066955566	1675
1.152644395828247	1600
1.157637357711792	1657
1.1627082824707031	1676
1.1677584648132324	1572
1.1727573871612549	1605
1.177670955657959	1674
1.1826953887939453	1594
1.1877434253692627	1565
1.1926305294036865	1648
1.1977152824401855	1608
1.202709674835205	1533
1.207711935043335	1609
1.2127842903137207	1628
1.2178127765655518	1533
1.222707986831665	1568
1.227731704711914	1623
1.23272705078125	1541
1.2377374172210693	1532
1.2426831722259521	1617
1.2476558685302734	1574
1.2526307106018066	1516
1.2576849460601807	1610
1.2626874446868896	1645
1.2677080631256104	1545
1.2726781368255615	1578
1.2776782512664795	1644
1.2827308177947998	1576
1.2876062393188477	1569
1.292581558227539	1669
1.2976782321929932	1643
1.3027310371398926	1581
1.3077418804168701	1670
1.3126540184020996	1697
1.3176524639129639	1605
1.3226714134216309	1635
1.3276910781860352	1682
1.332719326019287	1579
1.3376433849334717	1561
1.3426473140716553	1660
1.3477346897125244	1620
1.352729082107544	1551
1.3577296733856201	1641
1.3627090454101562	1659
1.3676981925964355	1561
1.3726403713226318	1604
1.3776965141296387	1663
1.382786750793457	1575
1.3878412246704102	1564
1.3928337097167969	1653
1.397831916809082	1611
1.4028024673461914	1542
1.407895565032959	1596
1.412999153137207	1565
1.4178669452667236	1378
1.4228456020355225	1231
1.4278297424316406	1086
1.4328455924987793	777
1.4376564025878906	695
1.442598581314087	971
1.4474492073059082	1083
1.452484130859375	1017
1.4574782848358154	1537
1.4623994827270508	2326
1.4673707485198975	2581
1.4723031520843506	2103
1.4773962497711182	1672
1.4823713302612305	1545
1.487461805343628	1610
1.492508888244629	1658
1.4975316524505615	1529
1.5026493072509766	1449
1.5076305866241455	1564
1.5126104354858398	1587
1.517557144165039	1476
1.5226097106933594	1511
1.5276281833648682	1571
1.5326266288757324	1478
1.537604808807373	1460
1.5426421165466309	1549
1.5477054119110107	1497
1.5526847839355469	1432
1.5577664375305176	1513
1.5627057552337646	1516
1.5676746368408203	1403
1.5726370811462402	1442
1.5777003765106201	1511
1.5827054977416992	1416
1.5877835750579834	1398
1.5927612781524658	1487
1.5977323055267334	1429
1.6027038097381592	1337
1.6077256202697754	1420
1.6127817630767822	1450
1.617790937423706	1334
1.6227340698242188	1367
1.6277532577514648	1447
1.6327273845672607	1357
1.637721300125122	1305
1.6427903175354004	1414
1.6478219032287598	1398
1.6527125835418701	1302
1.6577250957489014	1386
1.6627466678619385	1445
1.6677477359771729	1338
1.6728200912475586	1374
1.6779160499572754	1482
1.6828336715698242	1407
1.687798261642456	1396
1.6928682327270508	1546
1.6980445384979248	1543
1.7030162811279297	1478
1.7080092430114746	1594
1.7131104469299316	1672
1.718116283416748	1595
1.7230901718139648	1657
1.7280683517456055	1767
1.7330918312072754	1679
1.7380692958831787	1651
1.743086338043213	1777
1.7480227947235107	1755
1.7529923915863037	1664
1.7579727172851562	1743
1.7628793716430664	1789
1.7679722309112549	1683
1.7729690074920654	1708
1.777989387512207	1802
1.7829868793487549	1710
1.787973403930664	1662
1.792935848236084	1773
1.798006296157837	1745
1.8029892444610596	1639
1.807992696762085	1715
1.813053846359253	1755
1.818049430847168	1636
1.8230271339416504	1655
1.8280534744262695	1747
1.8330724239349365	1655
1.8380701541900635	1617
1.8431122303009033	1723
1.8480775356292725	1695
1.8531177043914795	1599
1.858128547668457	1685
1.863060712814331	1712
1.8680694103240967	1595
1.8730933666229248	1637
1.8782119750976562	1738
1.8832066059112549	1640
1.8881874084472656	1605
1.8931519985198975	1716
1.898207664489746	1694
1.903156042098999	1617
1.908160924911499	1721
1.9131128787994385	1768
1.9181311130523682	1653
1.9231245517730713	1682
1.9282078742980957	1776
1.9331839084625244	1674
1.9381828308105469	1630
1.9432179927825928	1720
1.948127031326294	1674
1.9530808925628662	1583
1.9580731391906738	1668
1.9630203247070312	1714
1.968029499053955	1609
1.973149299621582	1635
1.9781739711761475	1718
1.9831960201263428	1623
1.988173007965088	1589
1.9931654930114746	1696
1.9981703758239746	1656
2.0032637119293213	1557
2.008235454559326	1644
2.0132205486297607	1687
2.0182101726531982	1550
2.0233347415924072	1539
2.028312921524048	1539
2.033341884613037	1236
2.0384373664855957	986
2.0433528423309326	922
2.0481998920440674	884
2.0531132221221924	951
2.0580332279205322	1119
2.0630154609680176	1101
2.067983865737915	1311
2.0729901790618896	2126
2.077988624572754	2721
2.083026647567749	2190
2.0880088806152344	1575
2.093019723892212	1614
2.0980064868927	1721
2.1029574871063232	1597
2.107954502105713	1576
2.112957000732422	1598
2.1180121898651123	1509
2.1229336261749268	1551
2.127991199493408	1641
2.133091926574707	1534
2.138124942779541	1482
2.1431918144226074	1600
2.1481659412384033	1572
2.1532371044158936	1462
2.158189535140991	1542
2.1632120609283447	1586
2.1682562828063965	1468
2.173261880874634	1487
2.1782050132751465	1569
2.1832573413848877	1469
2.1882574558258057	1429
2.193406105041504	1542
2.198411226272583	1489
2.203399181365967	1392
2.2084217071533203	1476
2.213392972946167	1494
2.218414068222046	1367
2.2234444618225098	1398
2.228503704071045	1473
2.2334775924682617	1367
2.2384097576141357	1338
2.2434158325195312	1442
2.2484731674194336	1393
2.253479480743408	1303
2.258463144302368	1396
2.2634060382843018	1432
2.2684080600738525	1318
2.2733333110809326	1364
2.2783632278442383	1464
2.283416748046875	1368
2.288529872894287	1355
2.2936291694641113	1494
2.298569917678833	1474
2.303560256958008	1418
2.3085639476776123	1553
2.3136000633239746	1612
2.3185861110687256	1527
2.323622465133667	1609
2.3286666870117188	1726
2.333617687225342	1649
2.3385586738586426	1650
2.343580961227417	1771
2.34852933883667	1730
2.3535315990448	1655
2.358607769012451	1761
2.3636932373046875	1789
2.3686792850494385	1679
2.3736047744750977	1724
2.3787152767181396	1804
2.3837690353393555	1701
2.3886897563934326	1684
2.393575429916382	1797
2.3985507488250732	1745
2.403608798980713	1658
2.4086873531341553	1749
2.413734197616577	1760
2.418750286102295	1647
2.4237096309661865	1700
2.4286067485809326	1770
2.4336178302764893	1657
2.4385929107666016	1640
2.4436888694763184	1749
2.4487123489379883	1689
2.4536969661712646	1606
2.4586851596832275	1706
2.4637582302093506	1723
2.4687819480895996	1607
2.473742723464966	1664
2.4787981510162354	1744
2.4837327003479004	1636
2.488762855529785	1625
2.493760824203491	1735
2.4987616539001465	1682
2.5037448406219482	1608
2.5088260173797607	1717
2.5137486457824707	1742
2.518840789794922	1638
2.52380108833313	1703
2.5288174152374268	1781
2.533766984939575	1675
2.538799285888672	1669
2.543760299682617	1784
2.5487680435180664	1714
2.554043769836426	1617
2.5589797496795654	1708
2.5639402866363525	1709
2.568889856338501	1603
2.5738303661346436	1662
2.57893967628479	1745
2.5839881896972656	1638
2.58890700340271	1632
2.5938925743103027	1728
2.5988876819610596	1656
2.6039185523986816	1587
2.6088876724243164	1685
2.613872528076172	1683
2.618863344192505	1567
2.6238865852355957	1631
2.628852605819702	1694
2.6338422298431396	1544
2.6388421058654785	1494
2.6439406871795654	1415
2.648939847946167	1101
2.6540119647979736	809
2.6589338779449463	858
2.6638197898864746	1041
2.66878604888916	1075
2.673738718032837	1045
2.6787431240081787	1291
2.6837377548217773	1873
2.6887948513031006	2518
2.6937272548675537	2462
2.6987156867980957	1792
2.703709363937378	1482
2.7087316513061523	1681
2.713731527328491	1716
2.7187795639038086	1526
2.7237231731414795	1546
2.7287180423736572	1638
2.7337701320648193	1545
2.7387423515319824	1541
2.743760824203491	1634
2.7487447261810303	1561
2.7537033557891846	1490
2.758716106414795	1591
2.76379132270813	1586
2.7687840461730957	1464
2.7736711502075195	1523
2.7786309719085693	1585
2.7836508750915527	1467
2.788670539855957	1454
2.7937636375427246	1552
2.798711061477661	1486
2.80370831489563	1410
2.8086330890655518	1502
2.813685655593872	1494
2.8187384605407715	1372
2.8237404823303223	1432
2.828551769256592	1493
2.833609104156494	1373
2.8385796546936035	1358
2.8434667587280273	1447
2.8486127853393555	1373
2.8536412715911865	1294
2.8587429523468018	1388
2.8637208938598633	1382
2.8686368465423584	1276
2.8737103939056396	1343
2.8787896633148193	1415
2.883788585662842	1306
2.8886959552764893	1308
2.8936524391174316	1425
2.8986003398895264	1377
2.903632640838623	1332
2.9086408615112305	1465
2.913620948791504	1504
2.9186954498291016	1438
2.923698663711548	1550
2.9286985397338867	1651
2.9337308406829834	1578
2.9387667179107666	1624
2.9437739849090576	1753
2.9487924575805664	1692
2.9537742137908936	1651
2.9587209224700928	1771
2.963747024536133	1770
2.968824863433838	1665
2.9737753868103027	1741
2.9788384437561035	1812
2.983837127685547	1704
2.9886879920959473	1715
2.9937028884887695	1817
2.998767375946045	1742
3.0038037300109863	1678
3.008908987045288	1778
3.013654947280884	1778
3.018721580505371	1665
3.023756504058838	1734
3.0287132263183594	1788
3.0338807106018066	1669
3.0389151573181152	1684
3.0439040660858154	1780
3.0489273071289062	1697
3.0540409088134766	1647
3.059044122695923	1750
3.0641069412231445	1729
3.069141387939453	1633
3.0739994049072266	1711
3.078974723815918	1754
3.08402943611145	1638
3.0890321731567383	1667
3.0940632820129395	1761
3.0990939140319824	1676
3.104109287261963	1634
3.1089959144592285	1741
3.1140217781066895	1715
3.1190483570098877	1624
3.1241865158081055	1710
3.1292028427124023	1756
3.134235382080078	1652
3.139209270477295	1697
3.1442205905914307	1785
3.149240493774414	1698
3.154245615005493	1661
3.1592371463775635	1773
3.164294958114624	1744
3.169212818145752	1641
3.1742005348205566	1695
3.1792187690734863	1722
3.1842451095581055	1615
3.189347743988037	1664
3.194314479827881	1754
3.199341058731079	1670
3.204235553741455	1631
3.2091777324676514	1727
3.2142910957336426	1688
3.219266176223755	1601
3.224264621734619	1681
3.2292232513427734	1710
3.234311103820801	1601
3.2392942905426025	1643
3.244269371032715	1724
3.2493278980255127	1618
3.254352331161499	1561
3.259411573410034	1621
3.2644078731536865	1383
3.2694172859191895	1032
3.2743980884552	875
3.279313564300537	828
3.284259557723999	861
3.289125919342041	1004
3.294128894805908	1039
3.2990777492523193	1211
3.304081439971924	1888
3.3089828491210938	2619
3.3141117095947266	2386
3.3191041946411133	1691
3.3241422176361084	1591
3.3292014598846436	1737
3.334202527999878	1636
3.3392767906188965	1595
3.3442585468292236	1644
3.349238872528076	1568
3.3542563915252686	1547
3.359311103820801	1647
3.364309310913086	1594
3.3692729473114014	1495
3.3743042945861816	1576
3.3793585300445557	1609
3.3843657970428467	1494
3.3892719745635986	1526
3.3943471908569336	1594
3.3993208408355713	1501
3.4042859077453613	1478
3.4093642234802246	1578
3.4143872261047363	1530
3.4193849563598633	1448
3.4244372844696045	1523
3.429471969604492	1520
3.4345028400421143	1398
3.4395358562469482	1451
3.4444854259490967	1522
3.4494826793670654	1405
3.4544315338134766	1373
3.4595091342926025	1471
3.4644241333007812	1420
3.4694807529449463	1327
3.474457025527954	1401
3.479448080062866	1414
3.484459400177002	1302
3.4894840717315674	1358
3.4945766925811768	1436
3.499541759490967	1333
3.5044877529144287	1318
3.509521722793579	1426
3.514521598815918	1381
3.5194942951202393	1319
3.5246524810791016	1448
3.529585361480713	1511
3.5345635414123535	1437
3.539607286453247	1528
3.544745683670044	1631
3.549743890762329	1551
3.554699659347534	1576
3.5597245693206787	1719
3.5647377967834473	1686
3.56970477104187	1626
3.5746941566467285	1738
3.579728364944458	1760
3.584712266921997	1652
3.5896596908569336	1715
3.594756603240967	1795
3.599771022796631	1699
3.6047685146331787	1693
3.6097705364227295	1797
3.614626169204712	1737
3.6196506023406982	1664
3.62473201751709	1763
3.6297757625579834	1759
3.6347708702087402	1633
3.6396594047546387	1693
3.644740104675293	1773
3.6497585773468018	1672
3.65478777885437	1667
3.6597869396209717	1765
3.664706230163574	1701
3.6697542667388916	1639
3.6747403144836426	1739
3.6797659397125244	1725
3.6848692893981934	1612
3.6898083686828613	1682
3.694843053817749	1747
3.6998941898345947	1627
3.704841136932373	1630
3.709827184677124	1732
3.7149152755737305	1658
3.7199695110321045	1601
3.7249715328216553	1717
3.7299606800079346	1721
3.7350056171417236	1626
3.7399911880493164	1698
3.745016098022461	1743
3.750058650970459	1620
3.755044937133789	1636
3.7599618434906006	1748
3.7649896144866943	1682
3.7699456214904785	1634
3.775010824203491	1747
3.7799861431121826	1745
3.784977674484253	1636
3.789980173110962	1702
3.7950289249420166	1762
3.800053119659424	1651
3.804959297180176	1653
3.8099348545074463	1729
3.8149807453155518	1636
3.8199024200439453	1586
3.824840784072876	1708
3.8298444747924805	1718
3.8348100185394287	1607
3.839860677719116	1654
3.8448879718780518	1712
3.849863290786743	1613
3.8548855781555176	1627
3.8599190711975098	1725
3.864866256713867	1642
3.869961977005005	1566
3.8750159740448	1674
3.879964828491211	1680
3.8849918842315674	1567
3.8899924755096436	1585
3.8950142860412598	1574
3.9000465869903564	1286
3.9050326347351074	1036
3.909881114959717	883
3.9147040843963623	742
3.9195809364318848	810
3.9244580268859863	1017
3.9295077323913574	954
3.9343714714050293	1038
3.9393093585968018	1795
3.9443345069885254	2587
3.949310541152954	2404
3.9543306827545166	1774
3.959362268447876	1617
3.964399814605713	1647
3.969428300857544	1597
3.974421739578247	1634
3.9794232845306396	1610
3.9844722747802734	1498
3.9893898963928223	1548
3.994398832321167	1607
3.999453067779541	1502
4.004483461380005	1482
4.009402275085449	1580
4.014420986175537	1529
4.019434928894043	1448
4.0244386196136475	1535
4.029449701309204	1554
4.034452199935913	1440
4.039478778839111	1485
4.044457197189331	1557
4.0494208335876465	1453
4.054507255554199	1429
4.059564590454102	1522
4.0646140575408936	1470
4.069585800170898	1384
4.074565172195435	1453
4.079585313796997	1432
4.084616184234619	1301
4.0896666049957275	1386
4.094681024551392	1472
4.0996785163879395	1328
4.104585886001587	1288
4.109691619873047	1396
4.114684820175171	1347
4.1197710037231445	1272
4.124738931655884	1366
4.129704236984253	1375
4.134713649749756	1265
4.1397082805633545	1326
4.144702196121216	1406
4.1496992111206055	1312
4.154695987701416	1322
4.159675121307373	1448
4.164675235748291	1424
4.169637680053711	1391
4.174644947052002	1532
4.17960786819458	1591
4.1845784187316895	1513
4.189646482467651	1595
4.194673299789429	1693
4.199672222137451	1627
4.204704284667969	1647
4.209696531295776	1763
4.214699983596802	1711
4.219692230224609	1646
4.224715948104858	1756
4.22978138923645	1771
4.23484206199646	1676
4.2397966384887695	1739
4.2446699142456055	1807
4.249738693237305	1697
4.254733324050903	1680
4.259691476821899	1786
4.264592170715332	1738
4.2695631980896	1664
4.274458408355713	1761
4.279399156570435	1780
4.2844507694244385	1668
4.289416074752808	1720
4.294516086578369	1794
4.299622058868408	1687
4.304603815078735	1674
4.309607982635498	1784
4.314575910568237	1730
4.319523096084595	1645
4.324519395828247	1739
4.329521417617798	1755
4.334632396697998	1650
4.339548110961914	1704
4.344578504562378	1778
4.349608421325684	1680
4.354580879211426	1673
4.359666347503662	1779
4.364764213562012	1723
4.369758129119873	1654
4.374635457992554	1752
4.379605531692505	1772
4.384740829467773	1660
4.389739513397217	1725
4.394637823104858	1802
4.399604558944702	1696
4.404531478881836	1683
4.409633159637451	1800
4.414716482162476	1750
4.419711112976074	1688
4.4247355461120605	1800
4.429845809936523	1809
4.434924125671387	1701
4.439823389053345	1774
4.4448020458221436	1842
4.449851989746094	1743
4.454888343811035	1747
4.459863901138306	1828
4.464788436889648	1726
4.469944715499878	1659
4.474920749664307	1774
4.479916572570801	1772
4.4849324226379395	1674
4.489908933639526	1751
4.494927406311035	1809
4.499879598617554	1689
4.504835844039917	1690
4.509896516799927	1800
4.514890909194946	1726
4.519839525222778	1659
4.524908542633057	1763
4.529892444610596	1770
4.534857273101807	1658
4.539902210235596	1717
4.5449042320251465	1761
4.549907445907593	1610
4.554880380630493	1406
4.559855937957764	1222
4.564807176589966	892
4.569660425186157	737
4.57453727722168	959
4.579376459121704	1076
4.5843727588653564	893
4.589293479919434	1184
4.594244956970215	2022
4.599242925643921	2671
4.604263544082642	2517
4.609316110610962	1979
4.614382028579712	1670
4.619500637054443	1695
4.624348402023315	1818
4.6292946338653564	1758
4.634267091751099	1606
4.639386177062988	1669
4.644308090209961	1757
4.649256229400635	1648
4.654218912124634	1613
4.659266948699951	1720
4.664244890213013	1676
4.669226884841919	1592
4.674253702163696	1676
4.679303169250488	1690
4.684208631515503	1572
4.689173221588135	1619
4.694193601608276	1690
4.699188232421875	1589
4.704195499420166	1561
4.70930552482605	1658
4.714215040206909	1602
4.719301700592041	1505
4.724273681640625	1595
4.729219198226929	1614
4.734251260757446	1494
4.739213228225708	1534
4.7442498207092285	1599
4.749166965484619	1491
4.754098653793335	1458
4.759149551391602	1553
4.764256477355957	1493
4.769197940826416	1399
4.77413535118103	1485
4.779117107391357	1512
4.784155368804932	1394
4.789147138595581	1435
4.794209718704224	1524
4.799092531204224	1434
4.8041300773620605	1411
4.809096574783325	1533
4.814120054244995	1515
4.819176197052002	1467
4.824240684509277	1601
4.829235315322876	1673
4.834204435348511	1606
4.839169979095459	1697
4.84419584274292	1816
4.849308967590332	1749
4.8542094230651855	1749
4.859270334243774	1875
4.864264249801636	1848
4.8692004680633545	1782
4.874188184738159	1889
4.879273414611816	1925
4.884250164031982	1814
4.889185428619385	1858
4.894252777099609	1945
4.899244785308838	1854
4.904170751571655	1827
4.909234523773193	1931
4.914159297943115	1887
4.919185638427734	1798
4.9242682456970215	1887
4.929275274276733	1909
4.934190511703491	1792
4.939166069030762	1835
4.944110631942749	1920
4.949166774749756	1820
4.954170227050781	1787
4.959141254425049	1890
4.964118480682373	1848
4.969083786010742	1758
4.974119424819946	1840
4.979035139083862	1867
4.984020233154297	1753
4.989116907119751	1797
4.994072914123535	1879
4.999060392379761	1782
5.004111051559448	1744
5.009146451950073	1848
5.014200925827026	1812
5.019062519073486	1723
5.023993253707886	1806
5.028932809829712	1843
5.0339086055755615	1730
5.038940191268921	1771
5.0439488887786865	1860
5.048995018005371	1768
5.0540735721588135	1741
5.059032201766968	1850
5.064070701599121	1813
5.069112777709961	1732
5.074126243591309	1821
5.079087018966675	1849
5.08407735824585	1743
5.089102268218994	1797
5.094078302383423	1885
5.099072456359863	1796
5.104074239730835	1762
5.109158992767334	1869
5.114090919494629	1827
5.119079113006592	1730
5.124038219451904	1789
5.129087924957275	1796
5.1340718269348145	1682
5.1391682624816895	1730
5.144199371337891	1808
5.149190664291382	1721
5.15414571762085	1699
5.159196853637695	1799
5.164192199707031	1750
5.169257640838623	1661
5.174317836761475	1747
5.179318428039551	1756
5.184306621551514	1635
5.189289808273315	1690
5.1943159103393555	1765
5.199283838272095	1658
5.204303026199341	1614
5.209319829940796	1681
5.214276552200317	1539
5.219300031661987	1232
5.224367141723633	1072
5.2293174266815186	889
5.234166622161865	757
5.239067077636719	930
5.243889570236206	1057
5.248871326446533	885
5.253767490386963	1267
5.258837461471558	2268
5.263852119445801	2779
5.2688610553741455	2194
5.273836851119995	1694
5.278828382492065	1676
5.2838780879974365	1695
5.288892507553101	1705
5.293957710266113	1698
5.298936128616333	1579
5.304006099700928	1565
5.3089611530303955	1672
5.313950300216675	1618
5.318941831588745	1517
5.3239641189575195	1596
5.328929662704468	1633
5.333904027938843	1516
5.338871955871582	1538
5.343894720077515	1620
5.348843812942505	1532
5.353941202163696	1491
5.358936786651611	1590
5.363912343978882	1549
5.368901491165161	1447
5.373859643936157	1519
5.378841400146484	1553
5.383949279785156	1429
5.388939142227173	1442
5.393953800201416	1516
5.399026870727539	1416
5.404036521911621	1377
5.409019947052002	1472
5.414015054702759	1415
5.419004201889038	1315
5.424029111862183	1390
5.428934097290039	1409
5.433937311172485	1282
5.43899130821228	1309
5.443941831588745	1390
5.448991775512695	1295
5.454124927520752	1267
5.459169149398804	1371
5.464148998260498	1330
5.469126462936401	1253
5.474165201187134	1358
5.479148864746094	1410
5.484119892120361	1330
5.489105224609375	1412
5.494078636169434	1542
5.499096393585205	1489
5.504245281219482	1502
5.5092480182647705	1651
5.514266014099121	1640
5.5192084312438965	1580
5.524228096008301	1688
5.529222726821899	1732
5.534218788146973	1634
5.539245367050171	1691
5.544222116470337	1771
5.54922080039978	1677
5.5542707443237305	1668
5.559268951416016	1772
5.564293384552002	1722
5.569283962249756	1646
5.574268341064453	1736
5.57915997505188	1753
5.5841593742370605	1635
5.589157581329346	1672
5.594167709350586	1748
5.59917688369751	1652
5.604199409484863	1626
5.609220743179321	1719
5.614298343658447	1667
5.61927342414856	1591
5.624227523803711	1681
5.629197359085083	1702
5.634232044219971	1583
5.639294862747192	1625
5.644364833831787	1693
5.649364948272705	1593
5.654406309127808	1580
5.65940260887146	1679
5.664473533630371	1624
5.66944694519043	1539
5.674487829208374	1641
5.679455280303955	1650
5.684447288513184	1540
5.689499616622925	1592
5.694446325302124	1664
5.699378252029419	1561
5.704349040985107	1543
5.709366083145142	1661
5.714369773864746	1613
5.7193827629089355	1529
5.724376440048218	1620
5.7293572425842285	1638
5.734323740005493	1532
5.739242792129517	1579
5.744269609451294	1652
5.749380588531494	1554
5.754379987716675	1548
5.7593889236450195	1651
5.764368295669556	1594
5.769474029541016	1523
5.774577379226685	1618
5.779563665390015	1625
5.784565210342407	1517
5.789604663848877	1589
5.794652700424194	1669
5.799566745758057	1568
5.804584741592407	1566
5.809705972671509	1672
5.814600467681885	1607
5.819710969924927	1531
5.824730396270752	1609
5.829712152481079	1581
5.834681272506714	1462
5.8396687507629395	1526
5.844696521759033	1596
5.84967565536499	1490
5.85467267036438	1495
5.85969877243042	1594
5.864670991897583	1524
5.869689464569092	1458
5.874697685241699	1549
5.879740238189697	1543
5.8847644329071045	1433
5.889728784561157	1492
5.894755125045776	1557
5.899857521057129	1442
5.904895305633545	1446
5.909916400909424	1539
5.914898157119751	1455
5.919844388961792	1277
5.924906492233276	1094
5.930055379867554	761
5.934936761856079	457
5.939926862716675	622
5.944859027862549	910
5.949683666229248	787
5.954591274261475	756
5.959522485733032	1321
5.96455454826355	2049
5.9695916175842285	2400
5.9746129512786865	2023
5.9796459674835205	1503
5.984607934951782	1342
5.989590167999268	1498
5.994701385498047	1531
5.999700307846069	1364
6.0046772956848145	1350
6.009648561477661	1468
6.014673948287964	1411
6.019617557525635	1326
6.024616003036499	1412
6.029804944992065	1406
6.034776926040649	1302
6.03978157043457	1363
6.044857025146484	1417
6.049954175949097	1298
6.055049180984497	1304
6.060065984725952	1387
6.06502890586853	1294
6.070023059844971	1238
6.0750892162323	1335
6.080088376998901	1308
6.085074186325073	1192
6.090068340301514	1256
6.095116376876831	1298
6.100174903869629	1174
6.105148792266846	1183
6.110204696655273	1261
6.115215063095093	1162
6.120216369628906	1095
6.125264406204224	1190
6.13025426864624	1160
6.13521409034729	1049
6.140186071395874	1120
6.145223140716553	1166
6.150172472000122	1049
6.155221223831177	1062
6.160199880599976	1161
6.165147304534912	1081
6.170079708099365	1036
6.175071477890015	1156
6.180079221725464	1156
6.185100793838501	1077
6.190174579620361	1197
6.195134401321411	1302
6.200053930282593	1242
6.205146789550781	1306
6.210170030593872	1439
6.2152228355407715	1401
6.220232725143433	1393
6.225178956985474	1531
6.230080842971802	1533
6.2350804805755615	1453
6.240032196044922	1543
6.245069980621338	1608
6.24999737739563	1500
6.255018472671509	1522
6.25993013381958	1626
6.264988660812378	1551
6.269962549209595	1500
6.274945497512817	1604
6.280043125152588	1594
6.28515625	1498
6.290218353271484	1573
6.295161724090576	1618
6.300111770629883	1502
6.305121660232544	1523
6.310119390487671	1614
6.315131425857544	1529
6.320186376571655	1487
6.325205564498901	1587
6.330265522003174	1556
6.335330009460449	1460
6.340348482131958	1545
6.345457077026367	1585
6.350440740585327	1469
6.3553876876831055	1498
6.360395669937134	1587
6.365363597869873	1501
6.370339632034302	1467
6.375391960144043	1571
6.380373239517212	1538
6.385460376739502	1455
6.390492677688599	1552
6.3955371379852295	1585
6.400554656982422	1467
6.405603647232056	1511
6.410750865936279	1597
6.415691137313843	1496
6.420664310455322	1477
6.425695180892944	1584
6.430743455886841	1530
6.435794115066528	1457
6.440837860107422	1559
6.445841550827026	1577
6.450812101364136	1467
6.4557945728302	1514
6.46087384223938	1597
6.465882778167725	1498
6.470826148986816	1487
6.475780248641968	1597
6.480786323547363	1551
6.485816955566406	1476
6.490926742553711	1568
6.496105670928955	1569
6.50107216835022	1462
6.506075620651245	1524
6.511021852493286	1593
6.5160973072052	1482
6.521120071411133	1477
6.526101589202881	1586
6.531177520751953	1526
6.5360658168792725	1457
6.541096925735474	1552
6.546076059341431	1561
6.551050901412964	1451
6.5560901165008545	1510
6.56107759475708	1580
6.5660669803619385	1475
6.571065664291382	1469
6.576091766357422	1572
6.581105709075928	1512
6.586092472076416	1442
6.591082572937012	1541
6.596088886260986	1550
6.601069688796997	1443
6.606061697006226	1500
6.611140251159668	1566
6.616143703460693	1464
6.621051073074341	1459
6.6261231899261475	1563
6.631232500076294	1500
6.636200428009033	1436
6.641322374343872	1541
6.646342039108276	1542
6.651299953460693	1439
6.65630030632019	1506
6.661271095275879	1569
6.666257619857788	1466
6.67125678062439	1474
6.676225185394287	1574
6.681196928024292	1507
6.6861958503723145	1444
6.691145896911621	1550
6.696173906326294	1561
6.7012176513671875	1451
6.706086874008179	1509
6.711120843887329	1580
6.716140031814575	1479
6.721149682998657	1479
6.7260589599609375	1581
6.731112003326416	1518
6.736111640930176	1453
6.741119623184204	1552
6.746142148971558	1559
6.75113582611084	1452
6.756133556365967	1517
6.761176586151123	1586
6.766169786453247	1478
6.771251916885376	1483
6.776240110397339	1588
6.7811877727508545	1527
6.7862162590026855	1463
6.791143178939819	1561
6.796135663986206	1563
6.801103591918945	1458
6.806155681610107	1526
6.8111653327941895	1590
6.816165447235107	1484
6.821166515350342	1488
6.826215028762817	1593
6.831188201904297	1522
6.836115598678589	1456
6.84114933013916	1551
6.846161127090454	1553
6.851203441619873	1447
6.85625696182251	1512
6.861366510391235	1568
6.866370439529419	1461
6.871364593505859	1486
6.876321077346802	1606
6.881341457366943	1533
6.886365652084351	1466
6.891313791275024	1555
6.896363019943237	1559
6.901341199874878	1477
6.906367778778076	1552
6.911316633224487	1616
6.916475772857666	1508
6.921431541442871	1527
6.926511764526367	1626
6.931497097015381	1556
6.936511039733887	1503
6.941483497619629	1601
6.94655442237854	1584
6.9516637325286865	1490
6.956642389297485	1573
6.9616005420684814	1626
6.966586589813232	1514
6.971580982208252	1533
6.976616382598877	1617
6.981591701507568	1441
6.986740827560425	1121
6.991658449172974	880
6.996586561203003	637
7.001514196395874	606
7.00642991065979	892
7.011335372924805	944
7.0162742137908936	771
7.021164417266846	1122
7.026163101196289	1956
7.031150817871094	2509
7.0361328125	2180
7.0410966873168945	1698
7.046093702316284	1547
7.051109313964844	1529
7.056215524673462	1612
7.06127405166626	1626
7.066192388534546	1499
7.071195125579834	1522
7.076267957687378	1634
7.081342935562134	1551
7.0863518714904785	1475
7.09134840965271	1575
7.096392631530762	1574
7.101258993148804	1469
7.10622239112854	1530
7.11134147644043	1584
7.116356611251831	1471
7.121422290802002	1480
7.126423358917236	1577
7.13140869140625	1496
7.136373043060303	1432
7.141400337219238	1527
7.146376371383667	1510
7.151458024978638	1410
7.156447649002075	1485
7.161429405212402	1533
7.166368722915649	1407
7.171412229537964	1407
7.1763691902160645	1496
7.181366443634033	1416
7.186330318450928	1350
7.191385269165039	1440
7.196384906768799	1420
7.201402187347412	1307
7.206394910812378	1365
7.211471080780029	1416
7.216387748718262	1299
7.22132420539856	1302
7.226358413696289	1399
7.231372833251953	1331
7.2364280223846436	1287
7.241419315338135	1399
7.246384143829346	1401
7.251328468322754	1322
7.256344795227051	1434
7.261389493942261	1527
7.266392707824707	1462
7.2714598178863525	1521
7.276480436325073	1660
7.281467437744141	1627
7.286423444747925	1614
7.291424512863159	1747
7.2964606285095215	1755
7.301531553268433	1676
7.306634902954102	1769
7.31168270111084	1830
7.316672086715698	1722
7.321683645248413	1749
7.326735496520996	1846
7.331718921661377	1766
7.336752414703369	1730
7.341756820678711	1834
7.346790790557861	1807
7.351719617843628	1713
7.356683969497681	1789
7.361701250076294	1825
7.366753101348877	1711
7.371705532073975	1740
7.376728773117065	1832
7.38175368309021	1747
7.386762619018555	1705
7.391757011413574	1807
7.396827220916748	1777
7.401904344558716	1683
7.406938314437866	1765
7.4119486808776855	1796
7.416991949081421	1685
7.4219677448272705	1721
7.427059650421143	1809
7.432010889053345	1717
7.4370200634002686	1690
7.442025661468506	1798
7.4470741748809814	1756
7.452127695083618	1671
7.45716118812561	1758
7.462189197540283	1792
7.467243909835815	1680
7.472154855728149	1723
7.477161884307861	1800
7.482146978378296	1706
7.487134218215942	1685
7.492105960845947	1791
7.497152805328369	1751
7.5020246505737305	1676
7.507036447525024	1770
7.512069940567017	1798
7.5170814990997314	1683
7.522166013717651	1728
7.527172803878784	1810
7.532109498977661	1714
7.537261247634888	1690
7.542156457901001	1801
7.547169208526611	1761
7.552191495895386	1681
7.557250738143921	1772
7.562310695648193	1798
7.5672852993011475	1680
7.572382211685181	1731
7.577457666397095	1805
7.582494497299194	1699
7.58757758140564	1693
7.592581748962402	1796
7.5975987911224365	1737
7.602544546127319	1663
7.6076202392578125	1759
7.612590074539185	1769
7.617603063583374	1662
7.622622728347778	1722
7.627580881118774	1786
7.632692337036133	1674
7.6376941204071045	1680
7.642751216888428	1780
7.647805452346802	1715
7.6527040004730225	1650
7.657713174819946	1743
7.662837028503418	1742
7.667824983596802	1641
7.672873497009277	1709
7.677854776382446	1766
7.68291163444519	1657
7.687826871871948	1662
7.692837953567505	1763
7.69781494140625	1695
7.70281195640564	1634
7.707842111587524	1734
7.712883710861206	1724
7.71778678894043	1610
7.722744464874268	1661
7.727710723876953	1724
7.732680320739746	1623
7.737688064575195	1621
7.742711544036865	1704
7.747731924057007	1617
7.752706050872803	1544
7.7577385902404785	1672
7.7627503871917725	1712
7.7677857875823975	1613
7.772822618484497	1661
7.77776575088501	1708
7.782757043838501	1609
7.787752866744995	1633
7.7927868366241455	1737
7.797829627990723	1670
7.802858114242554	1612
7.8078086376190186	1715
7.812755584716797	1714
7.817770957946777	1611
7.8227458000183105	1678
7.827763080596924	1743
7.8328025341033936	1632
7.837736368179321	1633
7.842682361602783	1740
7.84768271446228	1672
7.852750778198242	1607
7.857719898223877	1707
7.86280369758606	1696
7.867829322814941	1523
7.872749090194702	1342
7.877805233001709	1065
7.882887125015259	666
7.8877787590026855	661
7.892956018447876	987
7.897721529006958	970
7.90251088142395	808
7.907376527786255	1205
7.9124274253845215	1935
7.917489051818848	2508
7.922535419464111	2419
7.927541971206665	1892
7.932501792907715	1544
7.937570571899414	1606
7.942578315734863	1741
7.947758674621582	1632
7.952714920043945	1536
7.957756996154785	1640
7.962749242782593	1646
7.967775106430054	1541
7.972678184509277	1602
7.977737665176392	1655
7.982708215713501	1541
7.987705945968628	1543
7.9926512241363525	1636
7.997655630111694	1565
8.00257658958435	1494
8.007601976394653	1587
8.012547254562378	1581
8.017547130584717	1470
8.022541046142578	1519
8.027567386627197	1575
8.032661199569702	1463
8.03763723373413	1457
8.042624235153198	1560
8.047567129135132	1488
8.052541732788086	1401
8.057547330856323	1485
8.062548875808716	1485
8.067553520202637	1368
8.072643518447876	1411
8.077778100967407	1460
8.08264708518982	1344
8.087554931640625	1331
8.092570066452026	1420
8.097571611404419	1345
8.10263466835022	1266
8.10766339302063	1368
8.112597465515137	1373
8.1175696849823	1263
8.122619390487671	1329
8.127746820449829	1409
8.132749795913696	1317
8.13764500617981	1342
8.14275074005127	1488
8.147632837295532	1473
8.152673244476318	1452
8.15767240524292	1593
8.162667751312256	1643
8.167656421661377	1583
8.17266845703125	1685
8.177627801895142	1778
8.182659149169922	1691
8.187633752822876	1703
8.192597389221191	1815
8.197526454925537	1763
8.202645540237427	1710
8.207571506500244	1816
8.21250581741333	1827
8.217434167861938	1721
8.22243857383728	1777
8.22737979888916	1840
8.232465982437134	1738
8.237525939941406	1730
8.242475271224976	1827
8.247483730316162	1770
8.252538919448853	1700
8.257497549057007	1792
8.262577533721924	1785
8.267715215682983	1677
8.272675275802612	1735
8.277641773223877	1797
8.282721042633057	1688
8.287720680236816	1691
8.2926185131073	1790
8.297749042510986	1715
8.302769899368286	1651
8.307848453521729	1749
8.312847137451172	1744
8.31787109375	1647
8.32284665107727	1714
8.327829122543335	1763
8.33280611038208	1654
8.337830781936646	1678
8.342947244644165	1777
8.34797215461731	1696
8.352966070175171	1637
8.358044385910034	1742
8.363003253936768	1724
8.367975234985352	1621
8.372974157333374	1692
8.37807297706604	1750
8.383100986480713	1645
8.388129234313965	1668
8.39312219619751	1764
8.398068189620972	1683
8.403048276901245	1637
8.408024311065674	1738
8.413023710250854	1720
8.418046236038208	1626
8.42304801940918	1696
8.428102493286133	1745
8.433128356933594	1637
8.43817400932312	1664
8.44312572479248	1754
8.44814944267273	1671
8.453143119812012	1624
8.458142518997192	1729
8.463197469711304	1703
8.468221187591553	1610
8.473150968551636	1690
8.47823452949524	1735
8.48323941230774	1625
8.488102912902832	1652
8.493136882781982	1750
8.498122692108154	1669
8.503192663192749	1613
8.508198976516724	1707
8.513191223144531	1687
8.518223285675049	1596
8.523180723190308	1673
8.528228044509888	1717
8.533321142196655	1610
8.538480043411255	1642
8.543474197387695	1730
8.548398971557617	1638
8.553378105163574	1598
8.558399200439453	1702
8.56345248222351	1669
8.568403720855713	1568
8.573350191116333	1639
8.578309297561646	1674
8.583415985107422	1562
8.588409900665283	1580
8.59335446357727	1647
8.598319053649902	1573
8.603474855422974	1576
8.608425378799438	1697
8.613453388214111	1642
8.618479013442993	1539
8.623453140258789	1636
8.628430843353271	1698
8.633448362350464	1588
8.638468027114868	1615
8.643500089645386	1708
8.648537635803223	1622
8.653567790985107	1592
8.658539533615112	1695
8.663670539855957	1659
8.668699741363525	1575
8.673759937286377	1659
8.678839921951294	1684
8.683840990066528	1580
8.688814640045166	1630
8.693832159042358	1698
8.698754072189331	1597
8.70374846458435	1571
8.70876932144165	1650
8.713777303695679	1418
8.71881365776062	1036
8.723874568939209	827
8.728744745254517	726
8.733654975891113	716
8.73852801322937	885
8.74343466758728	899
8.748346090316772	893
8.753193855285645	1476
8.758196592330933	2434
8.763190507888794	2638
8.768187761306763	1932
8.77329969406128	1573
8.77839732170105	1672
8.783392190933228	1649
8.788487672805786	1630
8.793543338775635	1648
8.798567771911621	1550
8.803665161132812	1541
8.808751106262207	1649
8.81376028060913	1591
8.818698644638062	1498
8.823699951171875	1582
8.828671216964722	1606
8.833565711975098	1491
8.838536024093628	1530
8.84346342086792	1610
8.848505020141602	1505
8.853532552719116	1465
8.858482122421265	1567
8.863507986068726	1525
8.868513345718384	1432
8.873521566390991	1508
8.878566265106201	1530
8.883605003356934	1409
8.888710737228394	1445
8.893768787384033	1517
8.898741483688354	1397
8.90373945236206	1366
8.908743381500244	1465
8.913698673248291	1403
8.918732166290283	1302
8.923748016357422	1376
8.928746700286865	1384
8.933775186538696	1258
8.938775300979614	1293
8.9436936378479	1364
8.948688268661499	1264
8.953765869140625	1242
8.958772420883179	1350
8.963798522949219	1307
8.968849182128906	1234
8.973949193954468	1346
8.978934049606323	1386
8.983860731124878	1314
8.988831520080566	1406
8.99387502670288	1528
8.998867988586426	1480
9.003820180892944	1509
9.008805513381958	1659
9.013767957687378	1655
9.018810272216797	1613
9.023797988891602	1730
9.02886438369751	1762
9.033937215805054	1672
9.038966655731201	1746
9.043973922729492	1831
9.048946142196655	1734
9.053972482681274	1724
9.05897068977356	1829
9.06393575668335	1773
9.068857669830322	1708
9.073909521102905	1805
9.078814268112183	1821
9.083866834640503	1701
9.088818311691284	1754
9.093810319900513	1838
9.098844289779663	1730
9.103893756866455	1707
9.109053373336792	1813
9.11397910118103	1756
9.11897897720337	1679
9.12400507926941	1766
9.128911018371582	1774
9.133958101272583	1667
9.13892412185669	1715
9.143932342529297	1786
9.148950576782227	1681
9.15397334098816	1667
9.158975601196289	1763
9.163904190063477	1709
9.16900086402893	1637
9.173980951309204	1739
9.178953886032104	1745
9.183920860290527	1630
9.188910722732544	1686
9.193940162658691	1761
9.198876857757568	1661
9.203896045684814	1652
9.20890474319458	1760
9.213880777359009	1701
9.218998432159424	1630
9.223973035812378	1733
9.228895902633667	1741
9.2339186668396	1627
9.238943099975586	1680
9.243955612182617	1754
9.248929500579834	1655
9.25396466255188	1650
9.2589693069458	1748
9.263988733291626	1687
9.269032001495361	1619
9.27403473854065	1725
9.279074907302856	1734
9.283989667892456	1625
9.289001226425171	1683
9.294007539749146	1755
9.29902458190918	1651
9.30399775505066	1641
9.30896544456482	1740
9.314053297042847	1682
9.319040775299072	1616
9.324059009552002	1710
9.329031705856323	1715
9.334031820297241	1605
9.339056968688965	1665
9.344067096710205	1738
9.348976612091064	1631
9.353917121887207	1618
9.358886480331421	1722
9.363913774490356	1669
9.368950843811035	1596
9.373979091644287	1692
9.37896728515625	1695
9.383939981460571	1577
9.388969659805298	1623
9.39400601387024	1686
9.398999452590942	1580
9.404024839401245	1564
9.409021854400635	1650
9.413975715637207	1592
9.41903281211853	1562
9.424005508422852	1686
9.429084062576294	1670
9.43409252166748	1539
9.439022779464722	1600
9.444051265716553	1692
9.448984622955322	1602
9.453982591629028	1597
9.458958148956299	1697
9.463934421539307	1645
9.468982458114624	1584
9.47400450706482	1680
9.479029178619385	1680
9.484028816223145	1572
9.488999366760254	1629
9.493969202041626	1699
9.498952865600586	1599
9.503952264785767	1588
9.508907556533813	1688
9.513831853866577	1632
9.518805503845215	1546
9.523781061172485	1615
9.528744459152222	1493
9.533784627914429	1107
9.538748502731323	859
9.543794393539429	789
9.54869031906128	798
9.553572416305542	953
9.558470964431763	1008
9.563473224639893	925
9.56833815574646	1300
9.573387384414673	2185
9.578384160995483	2652
9.583386421203613	2066
9.588355541229248	1567
9.593348264694214	1610
9.598302841186523	1626
9.603297472000122	1575
9.6083345413208	1621
9.613296508789062	1581
9.61833119392395	1510
9.623357772827148	1596
9.628305435180664	1618
9.63333010673523	1500
9.63835334777832	1528
9.64333724975586	1607
9.648310899734497	1517
9.653300523757935	1481
9.65830683708191	1584
9.663382291793823	1535
9.668347835540771	1432
9.67329716682434	1518
9.678317070007324	1554
9.683358669281006	1432
9.688327550888062	1457
9.693243026733398	1529
9.6983163356781	1431
9.703375816345215	1396
9.708362579345703	1492
9.713344812393188	1446
9.718311548233032	1345
9.723278999328613	1416
9.728306293487549	1430
9.733322620391846	1295
9.738306283950806	1317
9.743333578109741	1398
9.748289108276367	1289
9.753243684768677	1237
9.758232593536377	1331
9.763156175613403	1298
9.768254518508911	1201
9.773256540298462	1282
9.778214693069458	1320
9.783241271972656	1207
9.788201093673706	1251
9.793221950531006	1363
9.798268795013428	1306
9.803258180618286	1309
9.808255195617676	1459
9.813292026519775	1474
9.818290710449219	1438
9.823276281356812	1571
9.828311920166016	1652
9.833358764648438	1580
9.838334321975708	1648
9.843303918838501	1758
9.848266124725342	1685
9.853217840194702	1664
9.858182907104492	1780
9.863132238388062	1759
9.86814022064209	1672
9.8731689453125	1761
9.878100395202637	1805
9.883126020431519	1693
9.888123512268066	1720
9.89316701889038	1809
9.898164749145508	1719
9.90308952331543	1676
9.908135175704956	1784
9.913182497024536	1753
9.918256521224976	1656
9.92318058013916	1735
9.928172588348389	1773
9.933219194412231	1652
9.938167095184326	1685
9.943181991577148	1774
9.948175430297852	1682
9.953202486038208	1638
9.958186626434326	1742
9.96313762664795	1713
9.968167304992676	1626
9.97315001487732	1707
9.978156328201294	1743
9.983279943466187	1626
9.988284826278687	1657
9.99327564239502	1745
9.998268127441406	1659
10.003283023834229	1627
10.008237838745117	1732
10.013231754302979	1693
10.018381118774414	1597
10.023364543914795	1687
10.028316497802734	1724
10.03331708908081	1615
10.038316011428833	1651
10.043366432189941	1740
10.048356533050537	1651
10.053334712982178	1614
10.058357238769531	1718
10.063327312469482	1688
10.068327903747559	1605
10.073369264602661	1693
10.078433275222778	1716
10.083473443984985	1602
10.088531255722046	1647
10.093507051467896	1735
10.098472595214844	1640
10.103473424911499	1615
10.108481884002686	1722
10.113443851470947	1680
10.118571519851685	1589
10.123574495315552	1682
10.128544807434082	1708
10.133540153503418	1596
10.138566970825195	1643
10.143558025360107	1726
10.14867877960205	1627
10.153682470321655	1605
10.1587393283844	1717
10.163813829421997	1668
10.168804407119751	1589
10.173813581466675	1683
10.17885708808899	1702
10.18384575843811	1593
10.188746690750122	1639
10.193831205368042	1714
10.198879957199097	1620
10.203879117965698	1608
10.208906888961792	1706
10.213929414749146	1645
10.218807220458984	1569
10.223825693130493	1656
10.228888988494873	1665
10.233906984329224	1552
10.238886594772339	1597
10.2439124584198	1658
10.248961925506592	1548
10.25393795967102	1567
10.258919715881348	1705
10.26392388343811	1660
10.268856287002563	1561
10.273887872695923	1635
10.27893352508545	1660
10.28385043144226	1571
10.288824558258057	1628
10.29383373260498	1706
10.298875570297241	1612
10.303989171981812	1604
10.309051990509033	1712
10.313996076583862	1664
10.318948984146118	1592
10.323976993560791	1685
10.328962802886963	1698
10.333935499191284	1590
10.338952779769897	1647
10.34394884109497	1724
10.348951816558838	1622
10.353951930999756	1607
10.3589928150177	1695
10.363911390304565	1550
10.368958234786987	1204
10.373977661132812	956
10.378859281539917	738
10.38377594947815	702
10.38864278793335	1038
10.3937087059021	1200
10.398735046386719	1036
10.40368366241455	1312
10.408716678619385	2059
10.41362977027893	2595
10.41865348815918	2278
10.423614501953125	1788
10.428656101226807	1627
10.433627367019653	1585
10.438599586486816	1656
10.443628549575806	1703
10.448626518249512	1594
10.453678846359253	1581
10.45863151550293	1691
10.46373200416565	1636
10.468700170516968	1551
10.473696231842041	1642
10.47872281074524	1663
10.48371171951294	1545
10.488769292831421	1586
10.493786811828613	1663
10.498769044876099	1560
10.503756284713745	1537
10.508825302124023	1639
10.513807535171509	1581
10.518759727478027	1495
10.523858308792114	1590
10.528923034667969	1605
10.533836364746094	1484
10.538798332214355	1525
10.543758630752563	1594
10.54872179031372	1483
10.553743124008179	1449
10.558762073516846	1537
10.5638427734375	1477
10.568791389465332	1389
10.573769092559814	1465
10.578670978546143	1473
10.583701848983765	1348
10.588733434677124	1380
10.593726873397827	1447
10.598726749420166	1341
10.603750944137573	1318
10.608769416809082	1429
10.61379075050354	1389
10.618711471557617	1308
10.62372350692749	1412
10.628756523132324	1454
10.6337571144104	1367
10.638675928115845	1458
10.643595457077026	1594
10.648586750030518	1552
10.653538942337036	1580
10.658577680587769	1741
10.663597583770752	1742
10.66857385635376	1692
10.673585414886475	1811
10.678601264953613	1865
10.683532238006592	1770
10.688533306121826	1824
10.6935555934906	1920
10.698549032211304	1832
10.703634262084961	1811
10.708648204803467	1925
10.713620901107788	1882
10.718597412109375	1797
10.723631143569946	1888
10.728647470474243	1911
10.733749628067017	1797
10.738730430603027	1846
10.74378228187561	1923
10.748747825622559	1819
10.75367784500122	1793
10.758731603622437	1903
10.76378870010376	1858
10.7687509059906	1774
10.773755311965942	1866
10.778763771057129	1880
10.78375506401062	1767
10.788722515106201	1812
10.793706893920898	1890
10.798726320266724	1790
10.803718566894531	1768
10.808730602264404	1870
10.813731670379639	1821
10.818726062774658	1738
10.823771715164185	1831
10.828763008117676	1850
10.833703756332397	1735
10.838693857192993	1784
10.843766212463379	1865
10.848761558532715	1762
10.853764295578003	1758
10.858755350112915	1859
10.863731861114502	1811
10.86864686012268	1732
10.873751878738403	1823
10.878804206848145	1841
10.883801460266113	1733
10.888804912567139	1791
10.893759727478027	1864
10.89874815940857	1761
10.903773307800293	1753
10.908805847167969	1855
10.913830041885376	1794
10.918957233428955	1721
10.92395830154419	1815
10.92892336845398	1819
10.933864831924438	1716
10.938889503479004	1777
10.94382643699646	1844
10.948846817016602	1743
10.953804969787598	1739
10.95887303352356	1837
10.96390151977539	1772
10.96889615058899	1700
10.97383999824524	1799
10.978858470916748	1806
10.983845949172974	1695
10.988758563995361	1747
10.993663787841797	1821
10.998591661453247	1723
11.00356936454773	1704
11.008600950241089	1808
11.013567924499512	1759
11.018619537353516	1675
11.02363133430481	1763
11.028652429580688	1780
11.033677339553833	1666
11.038748502731323	1718
11.043728828430176	1788
11.048778295516968	1689
11.053774118423462	1677
11.058650016784668	1777
11.063648462295532	1717
11.068649530410767	1641
11.0736985206604	1728
11.07869839668274	1734
11.083661079406738	1613
11.088623285293579	1659
11.09368634223938	1730
11.098628997802734	1617
11.103641986846924	1581
11.10863208770752	1670
11.113653421401978	1640
11.11866545677185	1615
11.1235990524292	1716
11.128649711608887	1708
11.13373613357544	1576
11.138733386993408	1636
11.143688201904297	1725
11.148603677749634	1624
11.153603553771973	1608
11.158706665039062	1718
11.16373324394226	1665
11.16873574256897	1594
11.173786163330078	1681
11.178834676742554	1686
11.183711290359497	1576
11.188711404800415	1631
11.19375467300415	1704
11.198854684829712	1600
11.203821182250977	1588
11.208827257156372	1687
11.213886499404907	1625
11.218920946121216	1537
11.223862409591675	1548
11.228888273239136	1298
11.233983516693115	837
11.238938093185425	635
11.243849992752075	758
11.24875020980835	908
11.253671646118164	941
11.258516550064087	986
11.263450384140015	1255
11.268458843231201	1810
11.273496150970459	2510
11.278549909591675	2360
11.2835214138031	1660
11.288566589355469	1485
11.293638467788696	1626
11.298599243164062	1555
11.303526163101196	1501
11.30850338935852	1580
11.31352710723877	1534
11.318554401397705	1456
11.32359790802002	1544
11.328662157058716	1551
11.333591222763062	1431
11.33860445022583	1477
11.34359884262085	1549
11.348626136779785	1438
11.3537015914917	1417
11.35875678062439	1513
11.363744735717773	1449
11.368729591369629	1362
11.37372875213623	1445
11.378704071044922	1454
11.38370966911316	1346
11.388770580291748	1387
11.393789529800415	1442
11.398813962936401	1323
11.403779029846191	1309
11.408731460571289	1404
11.413711786270142	1332
11.418814659118652	1244
11.423867464065552	1324
11.428844451904297	1313
11.433796882629395	1188
11.438797950744629	1229
11.44381594657898	1282
11.448821306228638	1164
11.453907012939453	1147
11.458878993988037	1245
11.463910818099976	1171
11.468961954116821	1101
11.473997831344604	1201
11.479001760482788	1209
11.483983516693115	1112
11.4889497756958	1188
11.493894815444946	1280
11.498870134353638	1217
11.503902673721313	1260
11.508890390396118	1409
11.513849973678589	1397
11.518872261047363	1376
11.52389144897461	1517
11.528884887695312	1552
11.533859014511108	1479
11.538971424102783	1563
11.543961524963379	1644
11.548952102661133	1552
11.554006099700928	1564
11.559024095535278	1668
11.564002752304077	1603
11.569104433059692	1548
11.57402777671814	1648
11.57905626296997	1648
11.584063291549683	1542
11.58912181854248	1604
11.594105243682861	1657
11.599132299423218	1545
11.604197025299072	1552
11.609262228012085	1643
11.61420202255249	1570
11.619300842285156	1511
11.624207258224487	1607
11.629178047180176	1589
11.634389877319336	1491
11.639427900314331	1562
11.644491910934448	1605
11.649556398391724	1482
11.65461277961731	1507
11.659702062606812	1598
11.664676666259766	1504
11.669726371765137	1460
11.674748659133911	1564
11.67971158027649	1531
11.684711694717407	1440
11.689724206924438	1524
11.694748640060425	1561
11.69961953163147	1445
11.704639911651611	1473
11.7096266746521	1556
11.714703798294067	1470
11.719670295715332	1435
11.724670171737671	1541
11.72968053817749	1511
11.734622955322266	1420
11.739542722702026	1492
11.744596242904663	1538
11.749739646911621	1422
11.75473666191101	1451
11.759754419326782	1544
11.764748811721802	1455
11.769680261611938	1418
11.774683713912964	1518
11.779764413833618	1487
11.784752368927002	1397
11.78985333442688	1491
11.794878959655762	1524
11.799923658370972	1409
11.804904222488403	1450
11.809953212738037	1537
11.814925909042358	1440
11.81999945640564	1410
11.825006246566772	1517
11.83009386062622	1478
11.834988594055176	1391
11.839991569519043	1481
11.844988346099854	1508
11.849993705749512	1395
11.855029821395874	1440
11.860034704208374	1524
11.864965915679932	1431
11.869919300079346	1401
11.874913692474365	1508
11.879899263381958	1459
11.88492727279663	1371
11.889997482299805	1465
11.894997835159302	1495
11.89989423751831	1380
11.904843807220459	1420
11.909806728363037	1511
11.914773941040039	1426
11.919801473617554	1389
11.924769163131714	1484
11.929796934127808	1442
11.934822797775269	1351
11.939904928207397	1432
11.944955587387085	1456
11.949862718582153	1341
11.954838514328003	1383
11.959896326065063	1462
11.964871883392334	1346
11.969872951507568	1305
11.974947452545166	1456
11.979966640472412	1462
11.984967231750488	1370
11.989946365356445	1433
11.995025157928467	1455
12.000030517578125	1363
12.005027055740356	1419
12.0100257396698	1499
12.015087366104126	1402
12.020112752914429	1393
12.025179862976074	1517
12.030172348022461	1468
12.035252809524536	1379
12.040273666381836	1479
12.045292377471924	1500
12.05026125907898	1388
12.05534291267395	1439
12.06030535697937	1509
12.065221309661865	1411
12.070253372192383	1401
12.075273275375366	1500
12.080241203308105	1424
12.085180759429932	1200
12.09017825126648	1000
12.095211505889893	685
12.100212812423706	404
12.105070352554321	600
12.109948873519897	904
12.114948034286499	765
12.119846820831299	767
12.12477970123291	1375
12.129806518554688	2075
12.134768962860107	2341
12.139671325683594	1989
12.144725799560547	1536
12.149780035018921	1347
12.154728412628174	1437
12.159832000732422	1517
12.164759635925293	1390
12.169681549072266	1346
12.174690008163452	1463
12.179737567901611	1432
12.184761047363281	1335
12.189726114273071	1414
12.194756269454956	1447
12.19959020614624	1327
12.204590082168579	1356
12.20971131324768	1444
12.214713335037231	1355
12.219701051712036	1304
12.224713802337646	1401
12.229689359664917	1371
12.234578132629395	1274
12.2395658493042	1350
12.244619607925415	1383
12.249619245529175	1264
12.254669904708862	1285
12.259634733200073	1367
12.264562368392944	1270
12.269505739212036	1217
12.274500370025635	1313
12.279499292373657	1277
12.284574270248413	1162
12.289632081985474	1233
12.294600486755371	1265
12.299579620361328	1139
12.304512739181519	1150
12.309641599655151	1233
12.314718246459961	1136
12.319734811782837	1095
12.324732065200806	1201
12.329696655273438	1170
12.334694147109985	1083
12.339852571487427	1176
12.344800472259521	1224
12.349872589111328	1129
12.354845523834229	1195
12.359874486923218	1326
12.36489462852478	1289
12.369947910308838	1315
12.374935388565063	1474
12.379917621612549	1482
12.384921312332153	1441
12.389877557754517	1567
12.394855976104736	1628
12.399831533432007	1544
12.404807567596436	1602
12.409861326217651	1694
12.414884328842163	1615
12.41990041732788	1596
12.4249107837677	1704
12.429879188537598	1671
12.434884786605835	1591
12.439880132675171	1677
12.44483995437622	1710
12.44985055923462	1602
12.454858779907227	1639
12.45987868309021	1723
12.464829444885254	1630
12.469978332519531	1607
12.474976301193237	1705
12.479990005493164	1652
12.485007524490356	1571
12.490037202835083	1663
12.495080709457397	1685
12.500040769577026	1567
12.505107879638672	1613
12.510104656219482	1690
12.515074014663696	1584
12.520071744918823	1569
12.52516794204712	1674
12.530081033706665	1627
12.535063743591309	1548
12.54009199142456	1636
12.545118808746338	1661
12.550095558166504	1550
12.555115938186646	1593
12.560112714767456	1675
12.56512451171875	1583
12.57011103630066	1564
12.575134754180908	1672
12.580153465270996	1622
12.585303544998169	1541
12.590169906616211	1637
12.595143795013428	1662
12.60009479522705	1556
12.605067253112793	1599
12.61011290550232	1684
12.61513066291809	1597
12.62005615234375	1577
12.62501072883606	1678
12.629954814910889	1632
12.63503384590149	1558
12.640006303787231	1656
12.64512014389038	1674
12.650089979171753	1569
12.655161619186401	1620
12.660123825073242	1694
12.665094375610352	1597
12.670037508010864	1586
12.675063848495483	1695
12.680037021636963	1646
12.6849946975708	1566
12.690057754516602	1659
12.69498586654663	1690
12.699964046478271	1586
12.704930067062378	1625
12.709952592849731	1702
12.71491026878357	1618
12.71987795829773	1588
12.724849700927734	1686
12.729860544204712	1653
12.734938859939575	1578
12.739802122116089	1661
12.744856834411621	1686
12.749854803085327	1570
12.754826068878174	1600
12.75986123085022	1681
12.764910459518433	1583
12.769933462142944	1555
12.774906396865845	1657
12.779909610748291	1597
12.785000324249268	1501
12.789979219436646	1620
12.795028448104858	1679
12.800055265426636	1567
12.805035591125488	1592
12.81003737449646	1666
12.815009832382202	1589
12.819969415664673	1580
12.825005531311035	1679
12.830024719238281	1636
12.835051536560059	1565
12.840055465698242	1661
12.845068454742432	1690
12.850132703781128	1586
12.855159759521484	1639
12.86020278930664	1714
12.865192651748657	1618
12.870191812515259	1604
12.875176429748535	1704
12.880105972290039	1654
12.885089874267578	1580
12.8900306224823	1657
12.895155191421509	1655
12.900306224822998	1407
12.905312061309814	1186
12.910335540771484	969
12.915170431137085	675
12.91998839378357	710
12.9249107837677	1028
12.929953336715698	1015
12.935029745101929	882
12.939968585968018	1436
12.944956302642822	2243
12.949935674667358	2599
12.954957485198975	2191
12.95993423461914	1738
12.964906215667725	1566
12.969962120056152	1639
12.974981546401978	1725
12.980047225952148	1621
12.985021114349365	1520
12.990049362182617	1629
12.995057344436646	1659
13.00005316734314	1532
13.005027294158936	1568
13.010135889053345	1648
13.015156269073486	1557
13.020134449005127	1531
13.025216817855835	1625
13.030188083648682	1569
13.03515362739563	1482
13.040137767791748	1579
13.04520297050476	1589
13.050209045410156	1475
13.055243492126465	1519
13.060236692428589	1589
13.065199375152588	1477
13.070213317871094	1452
13.075214147567749	1551
13.080314636230469	1486
13.085320234298706	1411
13.090341329574585	1494
13.095339059829712	1484
13.100385665893555	1359
13.105348825454712	1396
13.110370635986328	1448
13.115467548370361	1331
13.120375156402588	1316
13.125439167022705	1405
13.130445957183838	1335
13.135411739349365	1261
13.140328168869019	1355
13.145393371582031	1361
13.15047550201416	1254
13.155374765396118	1315
13.16043472290039	1393
13.165462255477905	1312
13.170385122299194	1342
13.175369024276733	1478
13.180343389511108	1463
13.18550729751587	1446
13.190507888793945	1596
13.195396900177002	1657
13.200461149215698	1595
13.205438137054443	1690
13.210415124893188	1790
13.215492725372314	1717
13.220628499984741	1734
13.225588083267212	1847
13.230693578720093	1793
13.235813856124878	1739
13.240823030471802	1848
13.245877504348755	1846
13.250832319259644	1744
13.255818843841553	1814
13.260788202285767	1879
13.265788078308105	1771
13.27085566520691	1776
13.275922775268555	1870
13.280818939208984	1799
13.285897016525269	1747
13.290814638137817	1848
13.29581618309021	1828
13.30087399482727	1723
13.305959939956665	1800
13.310941457748413	1851
13.315917491912842	1732
13.320933103561401	1739
13.326016187667847	1833
13.331040382385254	1755
13.335973501205444	1702
13.34095025062561	1804
13.34593939781189	1788
13.350891828536987	1683
13.356013059616089	1761
13.361082077026367	1807
13.366082191467285	1694
13.371077060699463	1714
13.376180171966553	1811
13.381206274032593	1729
13.386113405227661	1683
13.391165733337402	1783
13.396169185638428	1764
13.401131391525269	1675
13.406118631362915	1753
13.411031246185303	1804
13.416080713272095	1698
13.42107629776001	1721
13.426119089126587	1805
13.431061506271362	1723
13.436079502105713	1684
13.441086292266846	1787
13.446136951446533	1760
13.45116376876831	1662
13.456208944320679	1740
13.461257457733154	1782
13.466126203536987	1677
13.471160411834717	1709
13.476256132125854	1801
13.481233358383179	1712
13.48617935180664	1672
13.491186380386353	1776
13.496135234832764	1755
13.501139879226685	1662
13.506078243255615	1738
13.511080741882324	1780
13.516180992126465	1667
13.521203756332397	1699
13.526190996170044	1790
13.531128644943237	1706
13.536247730255127	1666
13.541342973709106	1770
13.546360731124878	1738
13.551408767700195	1644
13.556372165679932	1723
13.561332941055298	1758
13.566394329071045	1644
13.571364164352417	1671
13.57644510269165	1741
13.581391096115112	1638
13.586329221725464	1605
13.591304540634155	1706
13.596206665039062	1658
13.601255416870117	1553
13.606263637542725	1660
13.61131477355957	1741
13.61637020111084	1632
13.621446132659912	1637
13.6264328956604	1713
13.631335258483887	1644
13.636304140090942	1629
13.64128851890564	1733
13.646305561065674	1698
13.65144395828247	1612
13.656426191329956	1707
13.661481618881226	1740
13.666431188583374	1621
13.671391487121582	1657
13.676424980163574	1746
13.681469440460205	1654
13.686464309692383	1625
13.691423416137695	1723
13.696451902389526	1690
13.701428651809692	1604
13.706410884857178	1677
13.71143388748169	1693
13.716420412063599	1490
13.721476078033447	1267
13.726413011550903	1043
13.731391906738281	706
13.736308336257935	699
13.741274356842041	1063
13.74622368812561	1128
13.751173257827759	954
13.756077289581299	1345
13.761087894439697	2090
13.766031503677368	2573
13.771050930023193	2320
13.77610468864441	1823
13.781052350997925	1570
13.786033391952515	1612
13.791031837463379	1721
13.79600715637207	1641
13.801073789596558	1526
13.806127309799194	1619
13.81116271018982	1668
13.816070079803467	1543
13.821081161499023	1551
13.826082229614258	1645
13.831089735031128	1567
13.836181879043579	1517
13.841201305389404	1615
13.846171855926514	1588
13.851128578186035	1492
13.856102228164673	1558
13.861162424087524	1590
13.866169214248657	1475
13.87119436264038	1495
13.876150846481323	1576
13.881155014038086	1485
13.886177778244019	1432
13.891134977340698	1524
13.89605712890625	1500
13.901095390319824	1391
13.906118869781494	1450
13.911155223846436	1481
13.916129350662231	1358
13.921175956726074	1373
13.926225900650024	1454
13.931260824203491	1347
13.936399221420288	1292
13.941334247589111	1391
13.946356773376465	1346
13.951363325119019	1245
13.956390857696533	1319
13.961372375488281	1355
13.966309309005737	1244
13.971301555633545	1284
13.976356506347656	1381
13.98137640953064	1306
13.986304998397827	1300
13.991326093673706	1444
13.996320247650146	1464
14.001319885253906	1429
14.006303787231445	1562
14.011401176452637	1641
14.016387701034546	1581
14.021341323852539	1662
14.026445388793945	1777
14.031304836273193	1717
14.036301374435425	1702
14.041354417800903	1821
14.04643201828003	1791
14.051467657089233	1711
14.056553840637207	1808
14.061597108840942	1843
14.0666024684906	1734
14.071670532226562	1778
14.076761484146118	1860
14.081613540649414	1769
14.086673974990845	1750
14.091534852981567	1851
14.096689462661743	1802
14.101682901382446	1723
14.106606245040894	1812
14.111686944961548	1827
14.116710662841797	1714
14.121742963790894	1764
14.126782178878784	1836
14.131757259368896	1729
14.136804819107056	1710
14.141816139221191	1811
14.146737813949585	1754
14.151787281036377	1674
14.156787633895874	1764
14.161852598190308	1780
14.166903257369995	1665
14.171974182128906	1718
14.177021503448486	1789
14.18189787864685	1688
14.186874389648438	1674
14.191927671432495	1778
14.196901321411133	1728
14.201945304870605	1656
14.206949710845947	1750
14.21202301979065	1759
14.216973543167114	1651
14.221841812133789	1702
14.22688913345337	1777
14.231858968734741	1679
14.236861944198608	1673
14.241886615753174	1777
14.246840715408325	1718
14.251834869384766	1643
14.256789207458496	1739
14.261913299560547	1754
14.266892433166504	1647
14.271939039230347	1701
14.276910305023193	1769
14.281854152679443	1667
14.286947250366211	1666
14.291937589645386	1770
14.296843528747559	1711
14.30178189277649	1639
14.306759595870972	1731
14.311760663986206	1747
14.31674075126648	1638
14.321758508682251	1686
14.326766014099121	1762
14.331767559051514	1657
14.336826801300049	1641
14.341869115829468	1742
14.346890449523926	1690
14.35181212425232	1623
14.356832265853882	1723
14.361818552017212	1739
14.366756439208984	1626
14.37178349494934	1678
14.376814842224121	1753
14.38179087638855	1647
14.386809349060059	1628
14.39183521270752	1738
14.396791219711304	1688
14.401808261871338	1609
14.406816720962524	1703
14.41184949874878	1716
14.416852712631226	1602
14.421844005584717	1649
14.426848649978638	1714
14.431813716888428	1602
14.436805963516235	1582
14.441838026046753	1686
14.446863412857056	1624
14.451896905899048	1544
14.456885814666748	1619
14.461865186691284	1628
14.46685791015625	1557
14.471907138824463	1657
14.476912498474121	1717
14.481934785842896	1582
14.486940383911133	1569
14.492006540298462	1694
14.496997594833374	1653
14.501967668533325	1580
14.506934404373169	1680
14.512034893035889	1691
14.51711654663086	1595
14.522076606750488	1655
14.527092218399048	1722
14.53205680847168	1618
14.537039279937744	1617
14.54201340675354	1717
14.547039985656738	1651
14.551916360855103	1584
14.556921482086182	1684
14.561907768249512	1694
14.56685185432434	1576
14.57183313369751	1611
14.576927900314331	1541
14.581865072250366	1149
14.586885929107666	793
14.591829538345337	728
14.596730709075928	822
14.601627349853516	966
14.606538534164429	1027
14.611403942108154	1084
14.616369009017944	1438
14.621392011642456	2155
14.626455545425415	2648
14.631502866744995	2144
14.636581182479858	1601
14.641527891159058	1621
14.646513223648071	1649
14.651510238647461	1567
14.656564235687256	1616
14.661451816558838	1625
14.666429042816162	1524
14.671398401260376	1571
14.67634916305542	1643
14.681439876556396	1542
14.686421394348145	1507
14.691398620605469	1610
14.696394920349121	1566
14.701395511627197	1473
14.706389665603638	1558
14.711315631866455	1583
14.716279745101929	1464
14.721259355545044	1492
14.726260900497437	1574
14.731229305267334	1475
14.736295223236084	1429
14.7413010597229	1530
14.746283769607544	1492
14.751254081726074	1391
14.756281614303589	1459
14.761414289474487	1489
14.766411304473877	1367
14.771422624588013	1392
14.7764573097229	1454
14.781417846679688	1346
14.786438703536987	1302
14.791448831558228	1392
14.796462297439575	1339
14.801440715789795	1237
14.806432485580444	1315
14.811454772949219	1340
14.816492795944214	1223
14.821471214294434	1264
14.826480388641357	1352
14.831456899642944	1260
14.836413860321045	1243
14.841391801834106	1372
14.846477508544922	1358
14.851476669311523	1314
14.856477975845337	1456
14.861433029174805	1540
14.866390228271484	1474
14.871336221694946	1558
14.87645697593689	1686
14.881431818008423	1632
14.886536598205566	1640
14.891489744186401	1768
14.896522521972656	1744
14.901599884033203	1673
14.906569242477417	1773
14.911531448364258	1803
14.916614532470703	1696
14.921659708023071	1747
14.926605224609375	1832
14.931559324264526	1738
14.936509132385254	1709
14.941558361053467	1809
14.946558713912964	1766
14.951610326766968	1686
14.956488132476807	1776
14.961491107940674	1801
14.966487169265747	1687
14.97142481803894	1725
14.976402759552002	1809
14.98134732246399	1714
14.986322402954102	1681
14.99141526222229	1784
14.996439695358276	1745
15.001459121704102	1657
15.006446838378906	1746
15.011401653289795	1769
15.016428470611572	1651
15.02140474319458	1691
15.026387453079224	1775
15.031385660171509	1681
15.036383867263794	1655
15.041415691375732	1756
15.046462297439575	1713
15.05144476890564	1632
15.056418180465698	1721
15.06137752532959	1753
15.066397428512573	1639
15.071457862854004	1680
15.076496601104736	1760
15.081552982330322	1666
15.086514949798584	1647
15.091440677642822	1750
15.09653639793396	1707
15.101533651351929	1627
15.106579542160034	1716
15.111486911773682	1746
15.116448640823364	1637
15.121546745300293	1681
15.126540184020996	1762
15.131593942642212	1667
15.13655948638916	1647
15.141599893569946	1747
15.14663028717041	1705
15.15156888961792	1631
15.15649938583374	1716
15.161487102508545	1736
15.166533946990967	1628
15.1714928150177	1673
15.176525354385376	1756
15.181501388549805	1665
15.186603546142578	1640
15.191580533981323	1742
15.196650505065918	1695
15.201616287231445	1619
15.206642389297485	1707
15.211647272109985	1724
15.216656684875488	1613
15.221675157546997	1664
15.226638555526733	1744
15.23156452178955	1644
15.236568689346313	1626
15.241633176803589	1731
15.246667385101318	1681
15.251640796661377	1602
15.256593942642212	1688
15.261569738388062	1712
15.26656985282898	1604
15.271588563919067	1656
15.276603698730469	1725
15.28169298171997	1612
15.28670859336853	1583
15.291730880737305	1681
15.29673171043396	1632
15.301680564880371	1551
15.306707382202148	1625
15.311708927154541	1621
15.316729307174683	1525
15.321781873703003	1628
15.326788425445557	1726
15.33180832862854	1595
15.336769342422485	1561
15.341785669326782	1674
15.346816301345825	1648
15.35180926322937	1584
15.356801509857178	1674
15.361849546432495	1683
15.366877317428589	1574
15.371917247772217	1641
15.376935243606567	1711
15.381852865219116	1601
15.38699221611023	1601
15.391953229904175	1702
15.396960735321045	1642
15.401983499526978	1571
15.406985521316528	1667
15.411947965621948	1678
15.416996955871582	1573
15.421932935714722	1618
15.426971435546875	1650
15.431936979293823	1356
15.436909198760986	1044
15.441996097564697	826
15.446832656860352	669
15.451751470565796	774
15.456591129302979	1050
15.46167778968811	1012
15.466674089431763	1048
15.47161054611206	1672
15.476603031158447	2433
15.481550216674805	2516
15.486491203308105	1951
15.491536378860474	1650
15.496533155441284	1602
15.501647233963013	1572
15.50662088394165	1639
15.511614084243774	1623
15.516552925109863	1507
15.521554231643677	1566
15.526626825332642	1643
15.53160810470581	1541
15.536732912063599	1513
15.541788101196289	1612
15.546648740768433	1559
15.551656246185303	1470
15.556640625	1555
15.561701774597168	1568
15.56668472290039	1449
15.571609258651733	1490
15.576621294021606	1565
15.581536769866943	1459
15.58655333518982	1430
15.591506481170654	1531
15.596470832824707	1479
15.601576089859009	1386
15.606565237045288	1463
15.611587047576904	1485
15.616604089736938	1362
15.621653079986572	1396
15.626680374145508	1450
15.631654739379883	1335
15.636756658554077	1306
15.641785860061646	1397
15.646697521209717	1331
15.651675462722778	1237
15.656673908233643	1316
15.661729335784912	1331
15.666690826416016	1212
15.671608924865723	1261
15.676651954650879	1336
15.681666374206543	1236
15.686655521392822	1222
15.69173789024353	1348
15.696688890457153	1317
15.701712131500244	1276
15.706730842590332	1413
15.71181035041809	1476
15.716829299926758	1423
15.721879959106445	1526
15.726892232894897	1642
15.73188304901123	1582
15.736896991729736	1615
15.741986513137817	1750
15.747024536132812	1709
15.7520751953125	1664
15.757118701934814	1778
15.762069940567017	1784
15.767147064208984	1681
15.772087574005127	1746
15.777119874954224	1811
15.782081604003906	1704
15.787109851837158	1709
15.792133331298828	1809
15.797056198120117	1740
15.802075624465942	1682
15.807087421417236	1785
15.812139987945557	1777
15.817188501358032	1668
15.822170495986938	1728
15.82712697982788	1786
15.832152128219604	1680
15.837215423583984	1689
15.842263460159302	1788
15.847270727157593	1710
15.85229778289795	1649
15.857282638549805	1756
15.862281560897827	1746
15.867257356643677	1638
15.87231993675232	1700
15.87732481956482	1755
15.882270812988281	1644
15.887245655059814	1652
15.89226245880127	1749
15.897268533706665	1679
15.902342319488525	1620
15.907238006591797	1726
15.912147283554077	1722
15.91713809967041	1615
15.922180414199829	1680
15.927192449569702	1741
15.932190179824829	1638
15.937213659286499	1652
15.94223403930664	1751
15.947275400161743	1673
15.952301979064941	1620
15.957283735275269	1721
15.96230936050415	1710
15.9673752784729	1617
15.972423076629639	1689
15.977432489395142	1740
15.98240876197815	1629
15.987407445907593	1645
15.992387771606445	1738
15.997507810592651	1663
16.002498626708984	1624
16.007458448410034	1727
16.01236605644226	1711
16.017353534698486	1614
16.02239203453064	1686
16.027416944503784	1731
16.0323965549469	1623
16.037326335906982	1638
16.0422785282135	1731
16.047289609909058	1658
16.05225658416748	1605
16.057186126708984	1705
16.062223434448242	1699
16.067193269729614	1598
16.072316884994507	1670
16.077335119247437	1717
16.08230686187744	1608
16.08732581138611	1626
16.09233784675598	1719
16.09735131263733	1637
16.10237216949463	1583
16.10741925239563	1686
16.11235809326172	1668
16.117356538772583	1572
16.12242078781128	1649
16.127460956573486	1694
16.13237237930298	1580
16.137399435043335	1586
16.142470359802246	1675
16.147415161132812	1588
16.1523654460907	1530
16.157391786575317	1626
16.16237163543701	1611
16.167366981506348	1508
16.172388792037964	1568
16.177464723587036	1618
16.182459831237793	1543
16.187448978424072	1594
16.19244122505188	1675
16.197429656982422	1572
16.202406883239746	1526
16.207424640655518	1654
16.212452173233032	1645
16.217588186264038	1550
16.22257089614868	1628
16.227582931518555	1678
16.232507944107056	1572
16.237627267837524	1595
16.24260711669922	1683
16.247554779052734	1598
16.252562522888184	1560
16.257540225982666	1666
16.262447595596313	1642
16.267444849014282	1548
16.272522449493408	1627
16.277686834335327	1660
16.282744646072388	1539
16.28776454925537	1552
16.29275369644165	1473
16.29772925376892	1099
16.302733898162842	741
16.30758571624756	709
16.312606811523438	826
16.317646741867065	868
16.322444915771484	866
16.32736039161682	1026
16.33235788345337	1515
16.337336778640747	2293
16.34238314628601	2630
16.34735107421875	2004
16.352385759353638	1501
16.357444763183594	1613
16.362436294555664	1662
16.36743426322937	1524
16.372404098510742	1554
16.377440690994263	1608
16.38239073753357	1510
16.387393951416016	1522
16.392393350601196	1604
16.39736771583557	1518
16.402403354644775	1471
16.407413005828857	1574
16.412426233291626	1551
16.417325019836426	1441
16.422374486923218	1514
16.427391052246094	1563
16.432321786880493	1436
16.437421560287476	1443
16.442371129989624	1533
16.447425365447998	1452
16.452468872070312	1396
16.457423448562622	1492
16.462409734725952	1461
16.467442750930786	1351
16.472464561462402	1418
16.477482318878174	1461
16.482483386993408	1332
16.48744797706604	1338
16.492417812347412	1420
16.497422218322754	1324
16.502368211746216	1256
16.50735330581665	1344
16.51234269142151	1320
16.517392873764038	1208
16.522398948669434	1270
16.52736783027649	1317
16.53233814239502	1199
16.537410020828247	1210
16.542375326156616	1308
16.547445058822632	1240
16.552390336990356	1201
16.557398319244385	1329
16.5624098777771	1345
16.56744122505188	1282
16.57244110107422	1404
16.57751703262329	1505
16.58241629600525	1448
16.58743143081665	1512
16.59238886833191	1654
16.597383499145508	1622
16.602472066879272	1601
16.607494354248047	1732
16.612504482269287	1733
16.617638111114502	1654
16.622462034225464	1743
16.62751531600952	1793
16.63243865966797	1678
16.63743782043457	1702
16.64248561859131	1805
16.647510528564453	1735
16.652570247650146	1693
16.657532215118408	1788
16.662577390670776	1757
16.667505264282227	1661
16.67238450050354	1737
16.677424669265747	1789
16.68242573738098	1675
16.687414407730103	1691
16.69236469268799	1788
16.697370290756226	1711
16.702362298965454	1661
16.707393169403076	1758
16.71232771873474	1736
16.717302799224854	1632
16.722346305847168	1699
16.727257251739502	1751
16.73222804069519	1648
16.737192153930664	1664
16.74228811264038	1760
16.747257947921753	1681
16.752209901809692	1624
16.75715398788452	1719
16.762114763259888	1710
16.767086029052734	1610
16.77208662033081	1674
16.777059078216553	1725
16.78207802772522	1624
16.787057161331177	1642
16.79206156730652	1735
16.797035932540894	1670
16.802090167999268	1613
16.807162046432495	1712
16.812161445617676	1703
16.817246675491333	1601
16.822298049926758	1676
16.827286958694458	1733
16.832310676574707	1622
16.8373122215271	1632
16.842284679412842	1726
16.847371101379395	1654
16.852386474609375	1603
16.857304096221924	1710
16.862391471862793	1698
16.867408275604248	1600
16.872384071350098	1673
16.87730646133423	1718
16.882328033447266	1610
16.887328386306763	1631
16.892385721206665	1720
16.897395610809326	1643
16.90251898765564	1598
16.907504081726074	1706
16.91255211830139	1690
16.917582511901855	1599
16.922608375549316	1674
16.92756676673889	1707
16.932617902755737	1588
16.937559127807617	1615
16.942603826522827	1705
16.947630882263184	1615
16.952605485916138	1568
16.957607984542847	1660
16.962581396102905	1628
16.967579126358032	1530
16.972603797912598	1611
16.977703332901	1632
16.982778072357178	1497
16.987722635269165	1549
16.992859363555908	1680
16.997851848602295	1605
17.002832651138306	1548
17.007829189300537	1637
17.012898683547974	1611
17.01791787147522	1548
17.02298879623413	1646
17.027947425842285	1678
17.032959938049316	1567
17.037957429885864	1612
17.042937994003296	1694
17.04799246788025	1600
17.053039073944092	1574
17.058061838150024	1677
17.063063859939575	1633
17.068034172058105	1561
17.073107481002808	1644
17.07807230949402	1664
17.08310627937317	1563
17.08805537223816	1611
17.093130826950073	1666
17.09810996055603	1531
17.10311198234558	1328
17.107988357543945	1163
17.11295986175537	844
17.117948293685913	624
17.122882604599	834
17.127758502960205	1042
17.13274335861206	855
17.137624979019165	987
17.142431259155273	1703
17.147592306137085	2399
17.15255379676819	2487
17.15751028060913	2005
17.16251015663147	1583
17.167593955993652	1522
17.172518491744995	1667
17.177537441253662	1664
17.182567358016968	1501
17.187583684921265	1529
17.19247603416443	1639
17.19744634628296	1556
17.202596187591553	1492
17.207626819610596	1587
17.21262216567993	1560
17.217606782913208	1467
17.222593069076538	1542
17.227558612823486	1579
17.232531785964966	1464
17.23755979537964	1482
17.242563486099243	1564
17.24752449989319	1479
17.25255060195923	1433
17.257607460021973	1529
17.262579679489136	1496
17.267508268356323	1396
17.27262592315674	1461
17.277613401412964	1491
17.282604455947876	1373
17.287631034851074	1393
17.292711973190308	1468
17.297585010528564	1361
17.302793979644775	1312
17.30779528617859	1406
17.312705516815186	1355
17.317704916000366	1248
17.322712659835815	1320
17.327710151672363	1350
17.33282709121704	1225
17.337847232818604	1248
17.342886686325073	1331
17.347887992858887	1241
17.35286235809326	1220
17.357839822769165	1329
17.362796545028687	1304
17.367883443832397	1236
17.37284517288208	1357
17.37791132926941	1435
17.38293957710266	1374
17.387934923171997	1465
17.392883777618408	1597
17.397806644439697	1552
17.40282392501831	1568
17.407862663269043	1709
17.41288685798645	1697
17.417908906936646	1640
17.42285919189453	1750
17.427894830703735	1789
17.432887315750122	1688
17.437888860702515	1738
17.442938566207886	1818
17.44796347618103	1729
17.45294189453125	1716
17.458029747009277	1824
17.46306824684143	1775
17.468140125274658	1697
17.473272562026978	1794
17.478193998336792	1807
17.483133554458618	1689
17.488165616989136	1739
17.493135690689087	1815
17.498209953308105	1713
17.50311803817749	1697
17.5080988407135	1799
17.51313042640686	1750
17.518108367919922	1670
17.523056030273438	1757
17.528011322021484	1776
17.53302526473999	1667
17.538034677505493	1704
17.543096780776978	1778
17.54805612564087	1680
17.553038835525513	1658
17.55805468559265	1759
17.563053846359253	1715
17.56813144683838	1638
17.57319474220276	1734
17.578180074691772	1750
17.583164930343628	1638
17.588128328323364	1689
17.593124628067017	1763
17.598156690597534	1654
17.603233337402344	1645
17.608360052108765	1748
17.61331558227539	1691
17.61830735206604	1629
17.623335123062134	1725
17.628310918807983	1733
17.633283615112305	1632
17.638384580612183	1693
17.64339804649353	1764
17.64839482307434	1659
17.653355598449707	1651
17.65834140777588	1750
17.663362979888916	1697
17.668342351913452	1630
17.67331862449646	1723
17.678318977355957	1734
17.683331727981567	1630
17.688302278518677	1690
17.69339394569397	1756
17.69855761528015	1650
17.703688383102417	1658
17.70868945121765	1751
17.713603734970093	1684
17.718623161315918	1626
17.723686456680298	1725
17.728688955307007	1713
17.73377799987793	1619
17.73877739906311	1685
17.743767976760864	1740
17.748768091201782	1632
17.753786087036133	1640
17.758861541748047	1732
17.763920783996582	1660
17.768919706344604	1614
17.773755073547363	1717
17.778795957565308	1703
17.783735990524292	1602
17.788762092590332	1671
17.79379153251648	1721
17.798805952072144	1609
17.803781270980835	1614
17.808814764022827	1694
17.813841819763184	1612
17.8188636302948	1557
17.823858737945557	1657
17.828861474990845	1630
17.83391308784485	1512
17.838857412338257	1593
17.84386134147644	1680
17.84881329536438	1595
17.853778839111328	1594
17.858805894851685	1666
17.86375617980957	1592
17.86878490447998	1567
17.87378430366516	1684
17.878836393356323	1664
17.883922576904297	1568
17.88890767097473	1642
17.893945693969727	1697
17.899005889892578	1591
17.90394902229309	1614
17.90897250175476	1701
17.913938522338867	1620
17.918959379196167	1577
17.924043655395508	1684
17.929089069366455	1658
17.934035778045654	1566
17.938981771469116	1644
17.943991899490356	1681
17.949005365371704	1549
17.954079389572144	1448
17.959233045578003	1250
17.964218139648438	828
17.96907067298889	593
17.974114179611206	824
17.97906255722046	1054
17.98402452468872	942
17.988910675048828	1029
17.993883848190308	1552
17.99888253211975	2122
18.003851890563965	2535
18.008850812911987	2216
18.013935089111328	1615
18.018956422805786	1483
18.023908376693726	1657
18.029069185256958	1630
18.034032106399536	1495
18.03899073600769	1561
18.04396367073059	1610
18.048983573913574	1501
18.053931713104248	1518
18.058939456939697	1605
18.063918352127075	1520
18.068894386291504	1471
18.07386612892151	1572
18.07883644104004	1548
18.08380436897278	1452
18.088778734207153	1519
18.09384250640869	1557
18.09886360168457	1438
18.103881359100342	1455
18.108962297439575	1542
18.113927602767944	1451
18.118908643722534	1399
18.123910665512085	1495
18.12888789176941	1466
18.13383913040161	1358
18.138866662979126	1423
18.14390802383423	1459
18.148937463760376	1332
18.153934717178345	1338
18.15889024734497	1416
18.16385841369629	1319
18.169012546539307	1261
18.173933267593384	1350
18.17893886566162	1312
18.183959007263184	1198
18.188934564590454	1268
18.193984985351562	1314
18.198933362960815	1196
18.203885316848755	1216
18.208940029144287	1317
18.213963985443115	1249
18.219011783599854	1223
18.223960399627686	1354
18.228991508483887	1371
18.234018564224243	1324
18.23907208442688	1456
18.243917226791382	1552
18.248953819274902	1487
18.253942251205444	1559
18.258947372436523	1695
18.263887643814087	1649
18.26889157295227	1624
18.273869514465332	1744
18.27889895439148	1738
18.2839457988739	1658
18.28897476196289	1745
18.29409670829773	1789
18.299077033996582	1677
18.30405330657959	1708
18.309033393859863	1802
18.314072847366333	1717
18.31912088394165	1675
18.32411813735962	1773
18.32912278175354	1743
18.334074020385742	1656
18.33893346786499	1739
18.344067811965942	1777
18.34903335571289	1660
18.354089498519897	1689
18.359124660491943	1772
18.364107608795166	1678
18.369167804718018	1643
18.37414860725403	1748
18.379125595092773	1710
18.38419508934021	1615
18.389164686203003	1695
18.394164085388184	1730
18.399179458618164	1613
18.40421724319458	1652
18.40920114517212	1740
18.41424250602722	1648
18.419263124465942	1615
18.424280405044556	1716
18.42928910255432	1684
18.43425941467285	1606
18.439244508743286	1687
18.444207668304443	1721
18.44930934906006	1612
18.45429253578186	1653
18.459338903427124	1733
18.46433997154236	1636
18.469357013702393	1614
18.474345922470093	1719
18.479341745376587	1680
18.484364986419678	1597
18.489256143569946	1682
18.494222402572632	1714
18.499242067337036	1605
18.504215478897095	1642
18.50917339324951	1728
18.51417851448059	1637
18.519180059432983	1609
18.524210691452026	1709
18.529186248779297	1672
18.534198760986328	1587
18.53916335105896	1669
18.544191360473633	1705
18.54921007156372	1591
18.55413246154785	1632
18.55912971496582	1719
18.564204931259155	1627
18.569244623184204	1595
18.574212789535522	1701
18.57930088043213	1661
18.584304332733154	1578
18.58931565284729	1669
18.59428906440735	1700
18.599275827407837	1587
18.60433602333069	1628
18.609312534332275	1708
18.61430525779724	1615
18.619263887405396	1594
18.62422204017639	1691
18.62925386428833	1649
18.634254217147827	1572
18.63925576210022	1656
18.644312858581543	1683
18.649314165115356	1573
18.654391050338745	1615
18.6594181060791	1694
18.66447424888611	1601
18.669432401657104	1576
18.674376010894775	1674
18.679390907287598	1626
18.684468030929565	1552
18.689465284347534	1649
18.694465160369873	1670
18.699443340301514	1554
18.704400062561035	1596
18.70934009552002	1675
18.714313745498657	1571
18.719375371932983	1539
18.724305152893066	1636
18.729350805282593	1592
18.734333992004395	1503
18.739264249801636	1586
18.74431848526001	1591
18.749367713928223	1462
18.754428386688232	1538
18.759410619735718	1666
18.764414072036743	1581
18.76936674118042	1534
18.774353742599487	1621
18.779345750808716	1589
18.784411907196045	1526
18.78933882713318	1620
18.794445991516113	1643
18.799357652664185	1540
18.80430030822754	1592
18.809454917907715	1676
18.814571380615234	1571
18.819542407989502	1560
18.8245849609375	1670
18.8296115398407	1618
18.83458924293518	1540
18.839668035507202	1626
18.844529151916504	1638
18.8496036529541	1542
18.85463261604309	1595
18.859715700149536	1650
18.864710092544556	1511
18.86987066268921	1317
18.874887943267822	1114
18.87989640235901	734
18.884745359420776	557
18.889533758163452	847
18.894509315490723	1039
18.89967155456543	826
18.904560327529907	1020
18.909545421600342	1701
18.91450023651123	2301
18.91953158378601	2441
18.92453384399414	2007
18.92970037460327	1548
18.934717178344727	1474
18.939765214920044	1627
18.944780111312866	1617
18.949745178222656	1481
18.95473074913025	1539
18.95971417427063	1617
18.964736938476562	1503
18.96977710723877	1481
18.9747474193573	1583
18.979763507843018	1527
18.98479151725769	1453
18.98973774909973	1542
18.994789361953735	1538
18.99973464012146	1424
19.00486397743225	1480
19.00993847846985	1539
19.014874696731567	1429
19.019899368286133	1424
19.024892568588257	1517
19.02979612350464	1445
19.034834384918213	1367
19.039854288101196	1462
19.044899225234985	1455
19.049865245819092	1336
19.054842948913574	1388
19.059848308563232	1446
19.064817190170288	1321
19.069883346557617	1306
19.07488226890564	1398
19.079840421676636	1318
19.084815740585327	1235
19.089844942092896	1323
19.09495186805725	1317
19.0998318195343	1196
19.104824542999268	1251
19.109833002090454	1315
19.114819526672363	1205
19.119845867156982	1200
19.12476897239685	1312
19.129781484603882	1268
19.134776830673218	1219
19.139801263809204	1348
19.144791841506958	1393
19.149844646453857	1335
19.154834508895874	1449
19.15981411933899	1568
19.164851427078247	1513
19.16990637779236	1561
19.17486810684204	1698
19.179890394210815	1660
19.184950828552246	1625
19.19001078605652	1745
19.19505000114441	1754
19.19997787475586	1662
19.20490074157715	1734
19.209914445877075	1800
19.21491289138794	1697
19.219969272613525	1707
19.22497248649597	1810
19.230027198791504	1736
19.23500156402588	1674
19.23996376991272	1778
19.24504518508911	1765
19.250061988830566	1657
19.255025386810303	1723
19.259971857070923	1783
19.264918327331543	1669
19.270020008087158	1680
19.275048971176147	1778
19.27999210357666	1703
19.285008668899536	1639
19.289947986602783	1734
19.294965982437134	1730
19.30004620552063	1630
19.30507230758667	1693
19.310099601745605	1753
19.31521201133728	1644
19.320242166519165	1656
19.3252170085907	1749
19.330173015594482	1676
19.335242986679077	1629
19.340294361114502	1732
19.345289945602417	1713
19.350291967391968	1618
19.355209350585938	1690
19.360245943069458	1739
19.36527419090271	1633
19.370290994644165	1652
19.37535309791565	1741
19.38036847114563	1664
19.385348796844482	1621
19.390382766723633	1724
19.395498275756836	1702
19.400421857833862	1609
19.405426263809204	1690
19.410443782806396	1739
19.41535186767578	1629
19.420247793197632	1648
19.42524003982544	1742
19.430288314819336	1665
19.435303211212158	1622
19.44029140472412	1725
19.445356369018555	1706
19.450315237045288	1613
19.455260038375854	1691
19.460280895233154	1739
19.465299606323242	1631
19.47029185295105	1650
19.475317239761353	1737
19.480300188064575	1659
19.48528242111206	1620
19.490282773971558	1724
19.495379209518433	1692
19.500360250473022	1598
19.50537657737732	1679
19.510346174240112	1718
19.51532006263733	1608
19.520335912704468	1638
19.52531599998474	1728
19.530369758605957	1641
19.53533959388733	1601
19.54027271270752	1702
19.545316696166992	1677
19.55029058456421	1580
19.555288314819336	1655
19.560394763946533	1701
19.565377473831177	1590
19.57041883468628	1618
19.575403213500977	1702
19.580482482910156	1619
19.585456609725952	1581
19.590550661087036	1689
19.595536708831787	1659
19.60053586959839	1564
19.60551881790161	1646
19.610585689544678	1680
19.615562438964844	1568
19.620636463165283	1606
19.625774383544922	1688
19.630783796310425	1590
19.635844945907593	1568
19.64085817337036	1673
19.6458797454834	1626
19.65082049369812	1542
19.65591835975647	1619
19.66097593307495	1631
19.66597080230713	1517
19.670919179916382	1568
19.675957441329956	1636
19.680948972702026	1513
19.685925245285034	1485
19.691035509109497	1627
19.696099519729614	1613
19.701074838638306	1530
19.706095695495605	1608
19.71109414100647	1616
19.71599245071411	1518
19.720985889434814	1581
19.725963354110718	1655
19.73090958595276	1566
19.73593759536743	1556
19.740890741348267	1666
19.74586033821106	1616
19.75083327293396	1531
19.755934238433838	1626
19.761006355285645	1652
19.766033172607422	1543
19.77100706100464	1585
19.776036500930786	1655
19.781019926071167	1560
19.786093950271606	1552
19.791146278381348	1651
19.796208143234253	1579
19.801161766052246	1472
19.806209802627563	1374
19.81123995780945	1082
19.81615710258484	663
19.821028232574463	621
19.825894117355347	879
19.8307683467865	935
19.835635662078857	813
19.840537548065186	1061
19.845592737197876	1637
19.85048794746399	2244
19.855586290359497	2524
19.860606908798218	2036
19.86561155319214	1506
19.87071180343628	1537
19.875654935836792	1681
19.880646467208862	1565
19.885627508163452	1493
19.890631198883057	1592
19.89571189880371	1566
19.900718212127686	1479
19.905845165252686	1556
19.910857439041138	1579
19.915849685668945	1468
19.92083740234375	1508
19.925795078277588	1581
19.930837631225586	1481
19.935885190963745	1452
19.940858364105225	1552
19.945788145065308	1504
19.95073103904724	1414
19.95575737953186	1497
19.960744857788086	1518
19.965787172317505	1397
19.970818758010864	1428
19.975834369659424	1500
19.980894327163696	1393
19.985899448394775	1367
19.990989446640015	1463
19.99598264694214	1402
20.000894784927368	1305
20.005918502807617	1383
20.010919332504272	1390
20.015918731689453	1267
20.020915746688843	1298
20.025835275650024	1364
20.030797958374023	1256
20.03573727607727	1217
20.040714025497437	1317
20.045766830444336	1272
20.050740718841553	1185
20.05576181411743	1269
20.060773611068726	1308
20.065762996673584	1210
20.07073140144348	1268
20.075743913650513	1380
20.080739498138428	1326
20.085766792297363	1352
20.090805292129517	1512
20.095842123031616	1518
20.100796222686768	1485
20.10577368736267	1616
20.110771656036377	1682
20.115795850753784	1601
20.120893955230713	1671
20.125858545303345	1773
20.130850791931152	1693
20.135823011398315	1677
20.14083480834961	1789
20.145766973495483	1758
20.15078568458557	1679
20.15571093559265	1766
20.16073727607727	1796
20.165762186050415	1688
20.17069125175476	1735
20.17574119567871	1814
20.18071484565735	1719
20.185715675354004	1693
20.19071674346924	1791
20.19576382637024	1751
20.200886726379395	1672
20.205864667892456	1756
20.210829973220825	1772
20.215761423110962	1659
20.22075629234314	1703
20.22584104537964	1779
20.230814456939697	1678
20.235810041427612	1658
20.240789890289307	1763
20.24573802947998	1718
20.250840663909912	1639
20.25587010383606	1729
20.260891914367676	1744
20.26586604118347	1639
20.27092218399048	1687
20.27593231201172	1759
20.28085470199585	1666
20.285810232162476	1650
20.29087543487549	1750
20.29584050178528	1700
20.300891876220703	1626
20.30596423149109	1718
20.310935735702515	1736
20.315911293029785	1629
20.320873975753784	1680
20.325865745544434	1754
20.330860376358032	1660
20.335838079452515	1643
20.3408944606781	1746
20.345959901809692	1693
20.35092520713806	1621
20.355860471725464	1716
20.36097025871277	1731
20.365992784500122	1619
20.371012926101685	1670
20.375988006591797	1742
20.380861520767212	1647
20.38593363761902	1639
20.390991687774658	1746
20.395959615707397	1690
20.400985717773438	1614
20.40593671798706	1711
20.411003828048706	1728
20.415992498397827	1616
20.42098069190979	1672
20.42598605155945	1749
20.43099308013916	1647
20.435978412628174	1633
20.440939903259277	1735
20.446024417877197	1685
20.450956344604492	1615
20.45603060722351	1708
20.461036920547485	1718
20.465991258621216	1606
20.470927238464355	1658
20.475914478302002	1733
20.48089051246643	1632
20.485837936401367	1616
20.490864276885986	1722
20.49576234817505	1673
20.500786304473877	1590
20.505746126174927	1675
20.51076865196228	1697
20.51584219932556	1590
20.520907402038574	1643
20.52590823173523	1718
20.530851125717163	1611
20.535881280899048	1592
20.54086685180664	1706
20.545938968658447	1657
20.55095672607422	1573
20.55603337287903	1659
20.56105613708496	1663
20.566089153289795	1542
20.57103657722473	1595
20.576078414916992	1661
20.581018686294556	1558
20.58598828315735	1529
20.590985536575317	1616
20.59592366218567	1585
20.60092306137085	1556
20.605891704559326	1657
20.61091685295105	1650
20.615901231765747	1523
20.62098002433777	1592
20.62601399421692	1681
20.631086349487305	1581
20.636063814163208	1575
20.64107871055603	1688
20.646053552627563	1636
20.651165008544922	1568
20.656163215637207	1673
20.661195516586304	1676
20.666243076324463	1566
20.671273469924927	1625
20.676268577575684	1688
20.681238174438477	1587
20.68621063232422	1589
20.691331148147583	1687
20.69632601737976	1620
20.701418161392212	1562
20.7064688205719	1640
20.71143651008606	1474
20.716428518295288	1084
20.721415758132935	849
20.726329803466797	756
20.731183290481567	746
20.736076593399048	890
20.740989685058594	944
20.745868682861328	941
20.75082039833069	1406
20.75581383705139	2262
20.76076626777649	2646
20.765717267990112	2069
20.770800828933716	1607
20.775722980499268	1642
20.780710697174072	1621
20.785699367523193	1566
20.79060959815979	1617
20.79561161994934	1556
20.80075764656067	1487
20.805784225463867	1578
20.810793161392212	1591
20.815788745880127	1472
20.820764303207397	1517
20.82573390007019	1591
20.83076024055481	1485
20.83576011657715	1461
20.84068512916565	1563
20.845747470855713	1514
20.850740671157837	1422
20.855838775634766	1505
20.860788345336914	1520
20.865782737731934	1400
20.87078881263733	1438
20.875816345214844	1508
20.880794286727905	1400
20.885840892791748	1374
20.890812873840332	1468
20.895865201950073	1406
20.90087103843689	1324
20.905813217163086	1408
20.910842180252075	1410
20.915791034698486	1278
20.92078709602356	1311
20.92576313018799	1379
20.93071460723877	1271
20.9357168674469	1231
20.940715074539185	1325
20.945764780044556	1270
20.950788259506226	1184
20.95589804649353	1275
20.960883378982544	1300
20.965914964675903	1197
20.971022844314575	1259
20.976027250289917	1344
20.980965852737427	1267
20.98610758781433	1295
20.991084098815918	1441
20.99595808982849	1433
21.000938177108765	1414
21.00595259666443	1563
21.010950088500977	1619
21.016003608703613	1550
21.02103352546692	1644
21.026036977767944	1745
21.031035900115967	1664
21.03598642349243	1672
21.040969371795654	1783
21.045962810516357	1739
21.051063299179077	1671
21.056039094924927	1776
21.061044692993164	1791
21.066132307052612	1682
21.071106672286987	1742
21.0761079788208	1811
21.081124544143677	1709
21.08619976043701	1705
21.091119050979614	1807
21.096144437789917	1750
21.101154327392578	1677
21.106140851974487	1767
21.111142873764038	1767
21.116078853607178	1659
21.121033191680908	1720
21.126115083694458	1788
21.13112187385559	1677
21.136110305786133	1665
21.14109778404236	1763
21.1460542678833	1705
21.15103006362915	1636
21.155961990356445	1729
21.160990953445435	1735
21.16596221923828	1629
21.170963287353516	1679
21.17599320411682	1747
21.180938482284546	1646
21.18596076965332	1640
21.19091510772705	1743
21.19594430923462	1687
21.200985431671143	1618
21.206002235412598	1714
21.211009979248047	1726
21.216009378433228	1616
21.221049785614014	1670
21.22604274749756	1738
21.231050968170166	1635
21.236026287078857	1634
21.240968227386475	1740
21.245964527130127	1678
21.250938177108765	1606
21.255935192108154	1704
21.260916233062744	1725
21.265952825546265	1618
21.270979642868042	1671
21.27596879005432	1737
21.281014680862427	1633
21.285943031311035	1628
21.29096794128418	1728
21.295910835266113	1675
21.30088758468628	1607
21.305870532989502	1698
21.310892343521118	1706
21.31584143638611	1600
21.320939302444458	1653
21.325907707214355	1720
21.330934047698975	1622
21.335911750793457	1613
21.340911626815796	1713
21.34589147567749	1653
21.350879669189453	1576
21.355918645858765	1678
21.360896825790405	1695
21.365959405899048	1589
21.371007919311523	1644
21.375967264175415	1711
21.38098692893982	1604
21.38602066040039	1586
21.391035795211792	1682
21.395932912826538	1613
21.40101170539856	1538
21.40593910217285	1631
21.41111922264099	1628
21.416134119033813	1504
21.421117305755615	1566
21.426141262054443	1672
21.43114709854126	1592
21.436172008514404	1576
21.441250562667847	1658
21.44623565673828	1597
21.451313495635986	1563
21.456241846084595	1669
21.461284160614014	1661
21.466264009475708	1559
21.471277713775635	1633
21.476306676864624	1699
21.48125672340393	1592
21.486268997192383	1592
21.49129581451416	1691
21.496267557144165	1625
21.501295804977417	1569
21.506279230117798	1665
21.511332273483276	1659
21.516256093978882	1565
21.52127695083618	1630
21.526194095611572	1677
21.531317949295044	1537
21.536392211914062	1398
21.541542053222656	1225
21.54648184776306	864
21.55137610435486	623
21.556260347366333	798
21.56114149093628	995
21.566200256347656	881
21.571017503738403	942
21.575873136520386	1522
21.580857515335083	2184
21.58580708503723	2565
21.590816497802734	2209
21.595808744430542	1650
21.600847482681274	1513
21.605765342712402	1696
21.610799551010132	1683
21.615715503692627	1510
21.620717763900757	1544
21.625723361968994	1631
21.630714893341064	1536
21.63577961921692	1515
21.64075207710266	1608
21.64586591720581	1545
21.650892972946167	1468
21.655914545059204	1563
21.660892248153687	1571
21.66605830192566	1451
21.67114567756653	1508
21.67612051963806	1571
21.68121099472046	1457
21.68614363670349	1449
21.691157817840576	1540
21.696152925491333	1468
21.70114779472351	1397
21.706157207489014	1492
21.711167573928833	1484
21.716166019439697	1363
21.721122980117798	1414
21.726113319396973	1470
21.73107600212097	1354
21.736079692840576	1337
21.74107265472412	1418
21.74617075920105	1345
21.751118659973145	1266
21.756150245666504	1340
21.76111364364624	1322
21.766082525253296	1212
21.771060466766357	1274
21.776093244552612	1330
21.781123638153076	1217
21.786120176315308	1211
21.791115045547485	1323
21.796069145202637	1275
21.801116228103638	1227
21.806121110916138	1353
21.811192989349365	1390
21.81609320640564	1332
21.82124090194702	1447
21.826323986053467	1562
21.831336975097656	1501
21.836415767669678	1566
21.84139847755432	1705
21.84637427330017	1668
21.851438522338867	1641
21.856380462646484	1766
21.861393451690674	1773
21.866387844085693	1680
21.871439218521118	1766
21.876396417617798	1824
21.881349802017212	1714
21.886292695999146	1730
21.891276597976685	1834
21.896318674087524	1761
21.901293992996216	1702
21.906322717666626	1807
21.911343574523926	1800
21.91637372970581	1698
21.921382188796997	1765
21.926388263702393	1816
21.931413412094116	1704
21.936365604400635	1715
21.941386461257935	1810
21.94635272026062	1739
21.951353311538696	1683
21.95636487007141	1784
21.96140193939209	1769
21.9664626121521	1668
21.971444129943848	1734
21.9764506816864	1782
21.98139524459839	1675
21.986413955688477	1691
21.991426706314087	1780
21.996368885040283	1701
22.001349210739136	1650
22.00631284713745	1753
22.011321783065796	1740
22.01631784439087	1646
22.021348237991333	1717
22.02639365196228	1765
22.03134036064148	1657
22.03641366958618	1681
22.041393041610718	1776
22.046283721923828	1698
22.051260948181152	1645
22.056292057037354	1749
22.06136918067932	1740
22.06638240814209	1642
22.071396112442017	1714
22.076403379440308	1769
22.081423044204712	1663
22.086477994918823	1685
22.091426134109497	1774
22.096368074417114	1694
22.101362705230713	1646
22.10631799697876	1760
22.111462116241455	1745
22.116400718688965	1640
22.12136960029602	1711
22.126351356506348	1765
22.131315231323242	1656
22.13628888130188	1671
22.14128088951111	1765
22.146228790283203	1693
22.15120244026184	1642
22.156202793121338	1743
22.161206483840942	1731
22.16619896888733	1628
22.17117404937744	1692
22.17620301246643	1749
22.18118119239807	1646
22.186205863952637	1659
22.19129490852356	1755
22.19624423980713	1676
22.201221466064453	1627
22.206274271011353	1727
22.21130061149597	1707
22.216313123703003	1607
22.221397876739502	1683
22.226396799087524	1740
22.231395721435547	1622
22.23646593093872	1640
22.241597890853882	1733
22.246622800827026	1645
22.251752138137817	1595
22.256782054901123	1689
22.261837482452393	1652
22.26680088043213	1560
22.271798610687256	1635
22.276777267456055	1651
22.281747341156006	1523
22.286810159683228	1583
22.2916202545166	1721
22.296666860580444	1641
22.30170464515686	1576
22.306663990020752	1664
22.311652421951294	1649
22.316682815551758	1568
22.321693658828735	1657
22.3267502784729	1706
22.331746816635132	1597
22.33674931526184	1634
22.341822862625122	1717
22.34681487083435	1623
22.351816654205322	1596
22.3567898273468	1704
22.361799001693726	1674
22.36679697036743	1587
22.37177014350891	1670
22.376725435256958	1703
22.38170051574707	1590
22.38669443130493	1625
22.39172339439392	1692
22.396722555160522	1532
22.401707649230957	1260
22.406794548034668	1051
22.41170072555542	745
22.416584730148315	629
22.4215145111084	939
22.426459789276123	1122
22.431546688079834	942
22.43644404411316	1231
22.441466569900513	1961
22.446409463882446	2517
22.451439380645752	2372
22.45639705657959	1890
22.46140217781067	1594
22.4664409160614	1541
22.471418857574463	1649
22.47637438774109	1659
22.481396675109863	1517
22.486453771591187	1548
22.491432905197144	1649
22.49649405479431	1563
22.50148916244507	1513
22.506468057632446	1615
22.511537075042725	1584
22.516597986221313	1481
22.521564722061157	1550
22.526690006256104	1586
22.53175926208496	1465
22.53675365447998	1492
22.54171895980835	1566
22.546767234802246	1467
22.551772117614746	1437
22.556788444519043	1536
22.561887741088867	1483
22.56681489944458	1386
22.57174301147461	1466
22.576771020889282	1488
22.5817711353302	1357
22.586836099624634	1387
22.591933727264404	1460
22.596946954727173	1355
22.602017164230347	1315
22.60701298713684	1408
22.61194920539856	1347
22.61698269844055	1243
22.622080326080322	1319
22.627126693725586	1339
22.63207769393921	1218
22.637089490890503	1256
22.64210343360901	1325
22.647109746932983	1224
22.652135848999023	1210
22.65719509124756	1323
22.66223692893982	1282
22.66716504096985	1227
22.672136783599854	1357
22.677131414413452	1416
22.68214702606201	1351
22.687180280685425	1459
22.6921489238739	1585
22.69715404510498	1530
22.70215916633606	1557
22.707226514816284	1700
22.712364673614502	1679
22.717237949371338	1635
22.72220778465271	1746
22.72717046737671	1768
22.73217010498047	1670
22.737271308898926	1730
22.742300510406494	1807
22.74739909172058	1705
22.752452850341797	1699
22.757336854934692	1802
22.76242470741272	1741
22.767428874969482	1676
22.772538900375366	1779
22.777547597885132	1774
22.782508850097656	1671
22.787456035614014	1733
22.792450428009033	1796
22.797405004501343	1687
22.80247211456299	1684
22.807539463043213	1787
22.81254553794861	1719
22.817497491836548	1651
22.82248306274414	1747
22.827420949935913	1745
22.832393884658813	1636
22.837513208389282	1699
22.842512130737305	1756
22.847524404525757	1649
22.8524808883667	1650
22.857405424118042	1748
22.862465620040894	1682
22.867584228515625	1620
22.872665643692017	1715
22.877647161483765	1709
22.882731676101685	1613
22.887730836868286	1681
22.89276671409607	1738
22.897815465927124	1631
22.902654886245728	1646
22.907747268676758	1745
22.912753582000732	1669
22.917751789093018	1617
22.92284345626831	1723
22.92786931991577	1709
22.93285298347473	1606
22.93791627883911	1680
22.942938327789307	1735
22.947872638702393	1626
22.95294713973999	1650
22.95799231529236	1747
22.962970972061157	1664
22.96792984008789	1615
22.972928762435913	1721
22.977920055389404	1703
22.98285460472107	1605
22.988019466400146	1681
22.99299168586731	1728
22.997977256774902	1619
23.002954244613647	1642
23.00796413421631	1734
23.012975454330444	1651
23.01789951324463	1606
23.02301549911499	1713
23.02809429168701	1689
23.0330913066864	1593
23.03805637359619	1674
23.04299020767212	1715
23.047999143600464	1597
23.053068161010742	1627
23.058064937591553	1725
23.063055515289307	1642
23.068016529083252	1594
23.072990894317627	1697
23.07797861099243	1674
23.082921028137207	1578
23.087926387786865	1656
23.09294080734253	1701
23.097915410995483	1589
23.102988481521606	1613
23.108032703399658	1701
23.112985134124756	1618
23.117973804473877	1569
23.12299871444702	1666
23.12811517715454	1627
23.133150339126587	1536
23.138193607330322	1617
23.143347024917603	1646
23.148332357406616	1512
23.153252840042114	1534
23.158321142196655	1653
23.163354873657227	1610
23.168327808380127	1579
23.173312187194824	1657
23.178336143493652	1602
23.183349132537842	1538
23.188403129577637	1652
23.193568229675293	1675
23.198563814163208	1563
23.20356297492981	1612
23.208575963974	1700
23.21361517906189	1603
23.218544721603394	1580
23.22345209121704	1684
23.22856831550598	1636
23.233606815338135	1558
23.238664627075195	1648
23.243767023086548	1668
23.24869179725647	1560
23.253689289093018	1611
23.25872230529785	1686
23.26378607749939	1572
23.268775463104248	1481
23.27377724647522	1339
23.27879548072815	970
23.283639669418335	624
23.28854465484619	705
23.2934148311615	956
23.298274993896484	937
23.303256511688232	906
23.308117628097534	1291
23.313153743743896	1844
23.31812834739685	2438
23.323177814483643	2464
23.328193426132202	1859
23.333144187927246	1473
23.3381450176239	1592
23.34312891960144	1665
23.348103761672974	1519
23.35318350791931	1522
23.358112812042236	1616
23.36317253112793	1534
23.368104457855225	1492
23.373080015182495	1578
23.378127098083496	1543
23.38307499885559	1451
23.38805103302002	1529
23.39302659034729	1559
23.397995471954346	1441
23.40299081802368	1466
23.40795397758484	1552
23.412949085235596	1465
23.41797709465027	1413
23.42301630973816	1503
23.42802405357361	1475
23.433008193969727	1374
23.43795657157898	1443
23.442907094955444	1485
23.4479763507843	1363
23.453009605407715	1371
23.45800471305847	1449
23.463074445724487	1353
23.468055486679077	1295
23.473119020462036	1389
23.478055477142334	1351
23.483011960983276	1243
23.488091945648193	1306
23.493109226226807	1339
23.498038053512573	1213
23.50308895111084	1230
23.508152723312378	1316
23.51319718360901	1219
23.518246173858643	1177
23.52326202392578	1287
23.52823543548584	1265
23.53328776359558	1184
23.538230180740356	1289
23.543253183364868	1360
23.548294067382812	1289
23.553390979766846	1375
23.55832862854004	1513
23.563399076461792	1471
23.56834578514099	1492
23.573428630828857	1641
23.57841396331787	1637
23.583377838134766	1588
23.58832621574402	1699
23.59330439567566	1749
23.59827446937561	1652
23.60328507423401	1696
23.608279705047607	1787
23.613158464431763	1707
23.618229627609253	1678
23.623178243637085	1789
23.6281635761261	1764
23.633174896240234	1672
23.638131618499756	1757
23.64315438270569	1795
23.64823269844055	1682
23.653189420700073	1711
23.65807604789734	1796
23.66312527656555	1707
23.66828751564026	1673
23.673256635665894	1780
23.67827534675598	1748
23.683218955993652	1655
23.688217401504517	1736
23.693216800689697	1770
23.698192596435547	1655
23.703161001205444	1690
23.708141565322876	1777
23.7131667137146	1687
23.718186378479004	1654
23.723188161849976	1760
23.728147983551025	1723
23.733116388320923	1635
23.738229036331177	1723
23.743186712265015	1760
23.74815559387207	1653
23.753265380859375	1691
23.758284091949463	1777
23.763254404067993	1689
23.7682843208313	1662
23.77319884300232	1773
23.77819800376892	1742
23.783199548721313	1655
23.788169860839844	1744
23.793206453323364	1782
23.798140048980713	1671
23.803054332733154	1704
23.80799961090088	1795
23.813136339187622	1709
23.818170070648193	1674
23.823155403137207	1781
23.828158855438232	1758
23.83315372467041	1673
23.838141441345215	1757
23.84304666519165	1799
23.848045587539673	1687
23.853025913238525	1718
23.858044147491455	1808
23.86304497718811	1729
23.868114233016968	1694
23.873143434524536	1806
23.87812376022339	1771
23.883119106292725	1680
23.888161182403564	1769
23.893029928207397	1810
23.898080825805664	1696
23.90311861038208	1728
23.908118724822998	1820
23.91310477256775	1738
23.918068885803223	1702
23.923068284988403	1814
23.92799973487854	1790
23.933061361312866	1695
23.93804407119751	1776
23.943077564239502	1823
23.94801354408264	1717
23.953150033950806	1751
23.958148956298828	1836
23.963092803955078	1748
23.968091249465942	1708
23.97313094139099	1807
23.978103637695312	1764
23.98312783241272	1672
23.98808741569519	1760
23.99310326576233	1795
23.99811029434204	1672
24.003106832504272	1681
24.00809097290039	1768
24.01319122314453	1728
24.018152236938477	1735
24.02309012413025	1823
24.02807903289795	1762
24.03311014175415	1679
24.03810715675354	1793
24.043137311935425	1845
24.04810881614685	1735
24.05314016342163	1769
24.058146953582764	1863
24.063249588012695	1774
24.06829285621643	1745
24.073343992233276	1848
24.078296661376953	1810
24.08340096473694	1732
24.08842921257019	1817
24.0933997631073	1845
24.098374128341675	1741
24.1033878326416	1788
24.108458757400513	1867
24.113468170166016	1762
24.118467330932617	1723
24.123363256454468	1712
24.128473043441772	1389
24.1335711479187	992
24.138457775115967	889
24.14327645301819	990
24.148110389709473	1072
24.153162479400635	1112
24.158198356628418	1245
24.16317057609558	1645
24.168216228485107	2299
24.173298120498657	2831
24.178308725357056	2387
24.18338656425476	1751
24.188406467437744	1763
24.193454265594482	1866
24.19841766357422	1749
24.203466415405273	1743
24.208385229110718	1805
24.213398933410645	1731
24.21837329864502	1716
24.22338342666626	1809
24.228363037109375	1753
24.23343253135681	1668
24.238372802734375	1753
24.24341654777527	1771
24.248440504074097	1655
24.253395318984985	1696
24.258392333984375	1774
24.263463497161865	1666
24.26852059364319	1641
24.273487091064453	1736
24.278544187545776	1675
24.283519506454468	1593
24.28844928741455	1681
24.293458938598633	1688
24.298465728759766	1569
24.303413152694702	1604
24.308347463607788	1666
24.31335186958313	1560
24.31842279434204	1530
24.323404788970947	1618
24.328375339508057	1559
24.33337116241455	1458
24.33842444419861	1528
24.343398571014404	1530
