0.00020241737365722656	1666
0.0004761219024658203	1697
0.0007114410400390625	1772
0.0008728504180908203	1687
0.001032114028930664	1657
0.001180887222290039	1750
0.0013308525085449219	1712
0.0014870166778564453	1634
0.0016367435455322266	1721
0.0017855167388916016	1748
0.0019345283508300781	1642
0.00208282470703125	1680
0.002237558364868164	1747
0.0023856163024902344	1666
0.002534627914428711	1650
0.0026810169219970703	1743
0.0028581619262695312	1710
0.0030753612518310547	1641
0.003277301788330078	1720
0.003476858139038086	1739
0.003676176071166992	1639
0.003875255584716797	1677
0.004075527191162109	1752
0.004273891448974609	1673
0.0044727325439453125	1655
0.0046732425689697266	1747
0.004873752593994141	1706
0.005075931549072266	1632
0.005278110504150391	1713
0.005745410919189453	1660
0.008195161819458008	1606
0.013206243515014648	1482
0.01815342903137207	1547
0.023259878158569336	1562
0.028280019760131836	1478
0.03324413299560547	1563
0.03823280334472656	1620
0.04322195053100586	1489
0.048243045806884766	1497
0.05320167541503906	1581
0.05815625190734863	1500
0.06328511238098145	1424
0.06832146644592285	1516
0.07321357727050781	1493
0.07821273803710938	1402
0.08318042755126953	1465
0.08820629119873047	1507
0.0932765007019043	1397
0.0982975959777832	1436
0.10335302352905273	1527
0.1083528995513916	1429
0.11323904991149902	1383
0.11827802658081055	1461
0.12336373329162598	1417
0.1283414363861084	1324
0.1333017349243164	1405
0.13839006423950195	1366
0.14340996742248535	1255
0.14834809303283691	1357
0.15327739715576172	1446
0.15827393531799316	1329
0.1634066104888916	1366
0.16834568977355957	1470
0.1733872890472412	1382
0.1783459186553955	1304
0.18341660499572754	1393
0.18840909004211426	1406
0.19339919090270996	1309
0.19840407371520996	1352
0.20332980155944824	1436
0.20834779739379883	1388
0.21332311630249023	1423
0.21837592124938965	1543
0.2232959270477295	1509
0.2283155918121338	1479
0.23325157165527344	1603
0.23833394050598145	1631
0.2433030605316162	1562
0.24837923049926758	1629
0.25330090522766113	1692
0.2583756446838379	1595
0.263378381729126	1599
0.2683546543121338	1735
0.273329496383667	1650
0.27842235565185547	1564
0.28345274925231934	1704
0.2883915901184082	1757
0.2933924198150635	1639
0.2983987331390381	1685
0.30341029167175293	1752
0.3084678649902344	1647
0.3134162425994873	1635
0.3183774948120117	1706
0.3234286308288574	1637
0.328397274017334	1593
0.3333456516265869	1700
0.33838391304016113	1705
0.34342098236083984	1600
0.3484008312225342	1667
0.353424072265625	1719
0.3583977222442627	1608
0.3634805679321289	1630
0.3684511184692383	1709
0.3734579086303711	1621
0.3784751892089844	1537
0.383472204208374	1685
0.38848066329956055	1716
0.3935267925262451	1611
0.39864182472229004	1666
0.40364766120910645	1716
0.4086618423461914	1597
0.41360926628112793	1610
0.41852521896362305	1706
0.42354846000671387	1671
0.4285440444946289	1646
0.43353867530822754	1750
0.4385673999786377	1756
0.4435460567474365	1648
0.4485023021697998	1703
0.453427791595459	1765
0.4584641456604004	1647
0.46343564987182617	1601
0.4684429168701172	1684
0.4734179973602295	1633
0.47849297523498535	1594
0.48345041275024414	1704
0.4884777069091797	1692
0.4934990406036377	1569
0.49854350090026855	1644
0.5035998821258545	1721
0.5085158348083496	1593
0.5135154724121094	1589
0.5185041427612305	1697
0.5235028266906738	1636
0.5286922454833984	1548
0.5336239337921143	1625
0.538644552230835	1643
0.5436954498291016	1540
0.5487208366394043	1581
0.5537047386169434	1450
0.5586562156677246	1105
0.5636823177337646	858
0.568645715713501	829
0.5735809803009033	945
0.578481912612915	1130
0.5835518836975098	1316
0.5885016918182373	1626
0.5935115814208984	2080
0.5984859466552734	2550
0.6034996509552002	2296
0.608522891998291	1659
0.613530158996582	1496
0.6185257434844971	1666
0.6235690116882324	1598
0.6285593509674072	1476
0.633427619934082	1546
0.6384322643280029	1586
0.6434042453765869	1498
0.6483726501464844	1516
0.6534817218780518	1559
0.6583907604217529	1485
0.6633858680725098	1481
0.6683104038238525	1564
0.6733298301696777	1526
0.6783807277679443	1457
0.6834909915924072	1536
0.6885595321655273	1536
0.6936211585998535	1437
0.6985747814178467	1480
0.7036018371582031	1525
0.7085466384887695	1443
0.7135744094848633	1439
0.7185721397399902	1510
0.723473072052002	1453
0.7284977436065674	1384
0.7335507869720459	1469
0.7385680675506592	1469
0.74365234375	1357
0.7486248016357422	1410
0.7536571025848389	1466
0.7586257457733154	1372
0.7636528015136719	1357
0.7687015533447266	1445
0.7736506462097168	1388
0.7786736488342285	1320
0.7836282253265381	1411
0.788654088973999	1436
0.7937567234039307	1346
0.7987878322601318	1397
0.8037526607513428	1460
0.8087475299835205	1370
0.8137567043304443	1383
0.8186490535736084	1504
0.823676586151123	1484
0.8287827968597412	1448
0.8337011337280273	1569
0.8387558460235596	1591
0.843759298324585	1509
0.8488569259643555	1604
0.8538830280303955	1718
0.8589122295379639	1643
0.8639078140258789	1661
0.868988037109375	1775
0.8740074634552002	1714
0.878960371017456	1652
0.8839607238769531	1752
0.8889031410217285	1756
0.893897294998169	1651
0.8989202976226807	1728
0.9038920402526855	1803
0.9088606834411621	1695
0.9139177799224854	1658
0.9189167022705078	1745
0.9239346981048584	1708
0.9289810657501221	1678
0.9339570999145508	1762
0.9389150142669678	1733
0.943892240524292	1611
0.94893479347229	1675
0.9539194107055664	1745
0.9589228630065918	1645
0.9639666080474854	1644
0.9689140319824219	1740
0.9739706516265869	1657
0.9789471626281738	1605
0.9839606285095215	1714
0.9889473915100098	1704
0.993943452835083	1593
0.9989032745361328	1671
1.0039184093475342	1745
1.008920431137085	1624
1.014007806777954	1610
1.018989086151123	1720
1.0240390300750732	1689
1.0290594100952148	1628
1.034092903137207	1725
1.0390636920928955	1717
1.044095754623413	1618
1.0491414070129395	1693
1.0541682243347168	1761
1.059192180633545	1652
1.0642383098602295	1655
1.0692179203033447	1719
1.0742206573486328	1634
1.079232931137085	1603
1.0843195915222168	1709
1.0892891883850098	1690
1.0942890644073486	1605
1.0992622375488281	1692
1.1042213439941406	1732
1.1091933250427246	1596
1.1143097877502441	1617
1.119309663772583	1726
1.1242620944976807	1627
1.129232406616211	1565
1.1341965198516846	1673
1.1392357349395752	1662
1.144221305847168	1562
1.1492359638214111	1629
1.1541907787322998	1595
1.159210443496704	1264
1.164238452911377	1034
1.1692225933074951	882
1.1740694046020508	765
1.1789886951446533	976
1.183833360671997	1351
1.188861608505249	1509
1.1938831806182861	1778
1.1988871097564697	2355
1.2037858963012695	2637
1.2088439464569092	2073
1.2137858867645264	1635
1.218871831893921	1660
1.223818063735962	1600
1.228874683380127	1506
1.2339634895324707	1596
1.2389049530029297	1587
1.2439148426055908	1484
1.2489182949066162	1564
1.2539010047912598	1618
1.2589309215545654	1492
1.2639648914337158	1503
1.2689905166625977	1610
1.273942232131958	1519
1.27889084815979	1450
1.2838718891143799	1560
1.2887933254241943	1554
1.2937989234924316	1426
1.2988154888153076	1495
1.3037841320037842	1561
1.308868646621704	1426
1.3138692378997803	1427
1.3188509941101074	1539
1.3238303661346436	1458
1.3288724422454834	1368
1.3339412212371826	1485
1.3388898372650146	1482
1.3438940048217773	1359
1.3488917350769043	1426
1.353896141052246	1489
1.3588929176330566	1352
1.363990068435669	1363
1.369065523147583	1480
1.3740415573120117	1380
1.3790206909179688	1308
1.384002685546875	1435
1.3889727592468262	1429
1.394019365310669	1320
1.3990445137023926	1407
1.4039714336395264	1479
1.4089415073394775	1365
1.4139676094055176	1384
1.4189224243164062	1515
1.4239206314086914	1464
1.4289958477020264	1424
1.4339630603790283	1578
1.4389855861663818	1610
1.4440205097198486	1530
1.4490439891815186	1646
1.454087257385254	1740
1.4590668678283691	1639
1.4641196727752686	1674
1.4691674709320068	1777
1.474168062210083	1708
1.479219675064087	1673
1.4842920303344727	1790
1.4892737865447998	1757
1.4942958354949951	1661
1.4994449615478516	1772
1.5044190883636475	1815
1.509443998336792	1694
1.5143861770629883	1721
1.5193970203399658	1805
1.5243942737579346	1710
1.5293946266174316	1682
1.5344419479370117	1789
1.539445161819458	1748
1.5444436073303223	1656
1.5494720935821533	1742
1.554457426071167	1768
1.559450626373291	1653
1.5644404888153076	1692
1.5693695545196533	1770
1.57442307472229	1672
1.579395055770874	1643
1.5844743251800537	1744
1.5894975662231445	1701
1.5945134162902832	1613
1.5994937419891357	1708
1.6044771671295166	1736
1.6094701290130615	1630
1.6144940853118896	1682
1.6194531917572021	1764
1.6244940757751465	1678
1.6294538974761963	1662
1.6344890594482422	1756
1.6395189762115479	1703
1.6445386409759521	1634
1.6495656967163086	1725
1.654639720916748	1719
1.6596906185150146	1581
1.6648168563842773	1635
1.669809341430664	1714
1.6748313903808594	1625
1.6797752380371094	1624
1.6847963333129883	1726
1.6898982524871826	1660
1.6948721408843994	1584
1.6998674869537354	1678
1.704904317855835	1689
1.7098965644836426	1587
1.7148799896240234	1637
1.719923496246338	1690
1.7249250411987305	1590
1.7299418449401855	1584
1.734926700592041	1646
1.7399451732635498	1571
1.7449445724487305	1391
1.749878168106079	1268
1.75492525100708	1030
1.7599210739135742	701
1.7648160457611084	762
1.769650936126709	1085
1.7746145725250244	1152
1.7795383930206299	1315
1.7845194339752197	1963
1.7895169258117676	2490
1.7945175170898438	2430
1.799501657485962	1950
1.8045673370361328	1633
1.8096683025360107	1573
1.8146634101867676	1648
1.8196933269500732	1637
1.8246772289276123	1491
1.82967209815979	1494
1.8347747325897217	1620
1.8397719860076904	1553
1.8446946144104004	1462
1.8497486114501953	1554
1.854745626449585	1570
1.8597681522369385	1461
1.8648183345794678	1511
1.8698744773864746	1577
1.8748478889465332	1476
1.87992262840271	1469
1.8849210739135742	1560
1.8899250030517578	1486
1.894897699356079	1412
1.8999996185302734	1509
1.905074119567871	1508
1.9100990295410156	1398
1.9151742458343506	1451
1.920194387435913	1495
1.9252064228057861	1385
1.930176019668579	1380
1.9351749420166016	1463
1.9402251243591309	1389
1.9452452659606934	1332
1.9503021240234375	1423
1.9552326202392578	1413
1.9602491855621338	1303
1.965226173400879	1361
1.9702503681182861	1421
1.975252628326416	1329
1.9802720546722412	1338
1.9852986335754395	1436
1.9902536869049072	1368
1.9953019618988037	1309
2.0002994537353516	1413
2.0052530765533447	1429
2.0102362632751465	1351
2.015223264694214	1440
2.020272970199585	1522
2.0252480506896973	1453
2.0302553176879883	1495
2.0353269577026367	1615
2.0403497219085693	1576
2.045381784439087	1545
2.0504281520843506	1657
2.055504560470581	1661
2.0604805946350098	1582
2.0655291080474854	1660
2.070507049560547	1711
2.0754830837249756	1611
2.0804524421691895	1619
2.0854523181915283	1708
2.090487241744995	1647
2.09554386138916	1604
2.100529909133911	1690
2.1054792404174805	1667
2.1104986667633057	1573
2.115490674972534	1631
2.120485305786133	1679
2.125483989715576	1585
2.1304550170898438	1594
2.135507583618164	1677
2.140496253967285	1605
2.145569324493408	1548
2.1505212783813477	1636
2.155522346496582	1625
2.1605231761932373	1536
2.165583848953247	1601
2.170541524887085	1646
2.1755473613739014	1547
2.180572509765625	1562
2.1855509281158447	1659
2.190549850463867	1597
2.1955478191375732	1556
2.2005808353424072	1657
2.2056493759155273	1645
2.210631847381592	1559
2.2156848907470703	1636
2.220615863800049	1682
2.2257189750671387	1587
2.230692148208618	1600
2.2357451915740967	1660
2.240708827972412	1578
2.2457118034362793	1538
2.2506988048553467	1633
2.2557008266448975	1626
2.2607877254486084	1551
2.2657973766326904	1627
2.2706639766693115	1664
2.275644063949585	1560
2.2806501388549805	1573
2.2855772972106934	1653
2.2906253337860107	1582
2.295687675476074	1532
2.3007071018218994	1628
2.3058297634124756	1622
2.310856342315674	1522
2.3158562183380127	1574
2.3208863735198975	1544
2.3259050846099854	1241
2.3308801651000977	1029
2.33593487739563	857
2.3409156799316406	672
2.345810890197754	767
2.3508265018463135	1054
2.3556742668151855	1155
2.360621213912964	1544
2.3656036853790283	2354
2.3705761432647705	2722
2.375650644302368	2071
2.3807244300842285	1562
2.385721206665039	1637
2.390719175338745	1682
2.3957018852233887	1570
2.400651216506958	1566
2.4056289196014404	1544
2.4106991291046143	1477
2.415700674057007	1558
2.4207615852355957	1593
2.425718069076538	1481
2.430608034133911	1488
2.435633420944214	1575
2.4406301975250244	1510
2.4456746578216553	1455
2.4506490230560303	1537
2.4556427001953125	1526
2.460597276687622	1432
2.465526580810547	1487
2.4704933166503906	1538
2.475477457046509	1435
2.48051118850708	1424
2.4855074882507324	1505
2.490475654602051	1443
2.4954993724823	1380
2.500509262084961	1460
2.505606174468994	1449
2.5106654167175293	1354
2.5157015323638916	1404
2.5206124782562256	1442
2.5255911350250244	1339
2.530609607696533	1342
2.535640001296997	1432
2.5406179428100586	1370
2.5455238819122314	1307
2.550452947616577	1404
2.5555484294891357	1414
2.560577869415283	1321
2.565603256225586	1395
2.5705959796905518	1469
2.575617790222168	1382
2.580585241317749	1381
2.5855355262756348	1479
2.5905601978302	1454
2.5956783294677734	1441
2.60075044631958	1570
2.605778217315674	1600
2.6107404232025146	1541
2.6157138347625732	1639
2.6206681728363037	1727
2.6256394386291504	1668
2.6306629180908203	1702
2.6356639862060547	1796
2.6407406330108643	1721
2.645733594894409	1682
2.6506876945495605	1794
2.655791997909546	1790
2.6607937812805176	1693
2.665844678878784	1765
2.670896291732788	1818
2.675740957260132	1716
2.6808383464813232	1723
2.685849189758301	1825
2.6908257007598877	1770
2.6957476139068604	1703
2.700740337371826	1771
2.7058002948760986	1756
2.7107794284820557	1678
2.7157535552978516	1746
2.7206881046295166	1783
2.7255778312683105	1683
2.7306220531463623	1699
2.735718250274658	1796
2.740705966949463	1726
2.745832920074463	1668
2.750828266143799	1767
2.755811929702759	1763
2.7607243061065674	1669
2.7656712532043457	1732
2.770825147628784	1796
2.7758631706237793	1710
2.780909299850464	1737
2.7859160900115967	1809
2.7909934520721436	1727
2.7959823608398438	1698
2.8009960651397705	1787
2.806020975112915	1743
2.8110406398773193	1646
2.8161001205444336	1715
2.8210256099700928	1754
2.825991153717041	1662
2.8309144973754883	1700
2.835969924926758	1785
2.8409488201141357	1705
2.845980644226074	1654
2.85097336769104	1748
2.8560423851013184	1733
2.86103892326355	1641
2.86598801612854	1703
2.871021032333374	1742
2.876081943511963	1645
2.8810441493988037	1642
2.886138677597046	1694
2.8911447525024414	1488
2.896193265914917	1205
2.9011154174804688	1089
2.906092643737793	855
2.9110889434814453	679
2.916085958480835	897
2.920853853225708	1096
2.9258861541748047	1089
2.9308664798736572	1674
2.9358203411102295	2590
2.9408490657806396	2742
2.9458401203155518	2058
2.95085072517395	1704
2.9558520317077637	1737
2.9608547687530518	1721
2.9658455848693848	1687
2.970905065536499	1654
2.9758615493774414	1553
2.980802536010742	1572
2.985732316970825	1649
2.9907402992248535	1584
2.9957358837127686	1531
3.000755786895752	1626
3.005722761154175	1621
3.010697603225708	1531
3.0156502723693848	1613
3.020735740661621	1680
3.0256855487823486	1611
3.0307657718658447	1654
3.0357553958892822	1736
3.040875196456909	1551
3.0458765029907227	1366
3.050830602645874	1437
3.0558180809020996	1482
3.0608267784118652	1420
3.0658507347106934	1472
3.070823907852173	1504
3.0758659839630127	1407
3.0808651447296143	1415
3.0859296321868896	1496
3.090972900390625	1427
3.096005916595459	1380
3.1011202335357666	1469
3.1060705184936523	1449
3.1110434532165527	1362
3.1160690784454346	1444
3.1211016178131104	1508
3.126161575317383	1408
3.1311545372009277	1407
3.1362297534942627	1463
3.141202926635742	1386
3.1461715698242188	1351
3.1512629985809326	1466
3.156224489212036	1490
3.1611626148223877	1443
3.1660921573638916	1536
3.171149253845215	1605
3.1762211322784424	1536
3.181222438812256	1594
3.1863181591033936	1715
3.1912832260131836	1678
3.196233034133911	1677
3.2012598514556885	1796
3.2062461376190186	1778
3.2112536430358887	1663
3.2163078784942627	1738
3.2212727069854736	1809
3.2262277603149414	1740
3.231203556060791	1772
3.236253261566162	1844
3.241225004196167	1757
3.246208906173706	1713
3.25122332572937	1810
3.2561862468719482	1792
3.2611851692199707	1704
3.266258955001831	1777
3.2712457180023193	1805
3.2762234210968018	1733
3.2812540531158447	1796
3.2863521575927734	1836
3.2913639545440674	1676
3.296359062194824	1637
3.301471471786499	1773
3.306471109390259	1761
3.311525821685791	1667
3.316479444503784	1732
3.3214011192321777	1764
3.326397180557251	1683
3.3314168453216553	1730
3.3364293575286865	1813
3.341456413269043	1733
3.3464910984039307	1699
3.3514318466186523	1790
3.3564140796661377	1773
3.361440420150757	1694
3.3664727210998535	1756
3.371480941772461	1759
3.376486301422119	1645
3.3814821243286133	1680
3.386472463607788	1759
3.391505241394043	1670
3.396524429321289	1649
3.401496648788452	1744
3.406473398208618	1705
3.4114673137664795	1621
3.4164552688598633	1689
3.4214048385620117	1712
3.4264016151428223	1607
3.431614398956299	1636
3.436530828475952	1713
3.4414329528808594	1627
3.4464032649993896	1548
3.4513349533081055	1595
3.4563496112823486	1413
3.4613218307495117	1086
3.466308116912842	921
3.4711949825286865	831
3.476090669631958	856
3.4809393882751465	1049
3.4859297275543213	1121
3.4909234046936035	1166
3.495910882949829	1803
3.5009498596191406	2595
3.5060300827026367	2529
3.5109856128692627	1808
3.5160012245178223	1562
3.5209290981292725	1693
3.525906801223755	1657
3.5310606956481934	1590
3.536060333251953	1612
3.5409719944000244	1547
3.545975685119629	1519
3.5509092807769775	1613
3.555938959121704	1593
3.5609967708587646	1493
3.5659704208374023	1553
3.570932388305664	1597
3.5759263038635254	1497
3.580932140350342	1494
3.5859642028808594	1574
3.5909979343414307	1503
3.5960328578948975	1447
3.6010303497314453	1540
3.6060431003570557	1530
3.6110196113586426	1440
3.616091728210449	1494
3.621189832687378	1518
3.6261844635009766	1406
3.6310784816741943	1424
3.6361076831817627	1509
3.641054630279541	1433
3.6460556983947754	1371
3.651036500930786	1451
3.656057596206665	1431
3.6610794067382812	1338
3.6660497188568115	1398
3.6710524559020996	1441
3.6761372089385986	1337
3.681129217147827	1344
3.686138391494751	1429
3.6911778450012207	1365
3.6962344646453857	1323
3.701106309890747	1413
3.7061522006988525	1402
3.7111566066741943	1326
3.7163004875183105	1407
3.721322774887085	1466
3.7263426780700684	1392
3.7313501834869385	1452
3.7364344596862793	1592
3.7414045333862305	1559
3.7463860511779785	1539
3.7514073848724365	1659
3.756376028060913	1670
3.7613511085510254	1620
3.7663261890411377	1711
3.771381378173828	1759
3.7764885425567627	1665
3.781498908996582	1695
3.7864813804626465	1781
3.791536569595337	1719
3.796536684036255	1691
3.801583766937256	1771
3.806588888168335	1741
3.8116207122802734	1673
3.816580295562744	1754
3.8216259479522705	1785
3.8266751766204834	1683
3.8317391872406006	1708
3.836719274520874	1777
3.841712713241577	1690
3.846652030944824	1662
3.8516018390655518	1751
3.8566269874572754	1720
3.8616585731506348	1647
3.86669921875	1724
3.871697187423706	1754
3.8767263889312744	1647
3.8817801475524902	1676
3.886758804321289	1761
3.8917267322540283	1696
3.8966755867004395	1681
3.9016759395599365	1781
3.9066977500915527	1747
3.911649227142334	1659
3.9166622161865234	1737
3.9217257499694824	1769
3.926881790161133	1662
3.931853771209717	1678
3.9368295669555664	1736
3.941887855529785	1646
3.9469149112701416	1628
3.9518301486968994	1724
3.956835985183716	1700
3.961771249771118	1621
3.9667632579803467	1695
3.9716482162475586	1715
3.976644992828369	1608
3.9816222190856934	1637
3.9867055416107178	1711
3.991780996322632	1629
3.9967737197875977	1603
4.001728773117065	1690
4.006722450256348	1618
4.0117058753967285	1495
4.016707181930542	1421
4.021668195724487	1207
4.026695966720581	867
4.031523704528809	787
4.036417245864868	1009
4.041382789611816	1102
4.046356916427612	989
4.051329135894775	1098
4.056282043457031	1700
4.061300992965698	2386
4.066251277923584	2547
4.071235418319702	1985
4.076232194900513	1513
4.081225872039795	1592
4.086274147033691	1771
4.0913379192352295	1639
4.096295118331909	1524
4.101278305053711	1616
4.106279373168945	1628
4.111356496810913	1543
4.116340160369873	1600
4.121428489685059	1630
4.126472473144531	1528
4.131417512893677	1549
4.136385440826416	1634
4.141383409500122	1557
4.1463823318481445	1504
4.151468992233276	1586
4.1564695835113525	1563
4.161639451980591	1468
4.16658878326416	1537
4.17164945602417	1566
4.176676273345947	1459
4.181655168533325	1475
4.186550140380859	1549
4.191601276397705	1464
4.1966235637664795	1419
4.201679229736328	1500
4.20669412612915	1460
4.211841106414795	1370
4.216800928115845	1440
4.221861124038696	1460
4.226871013641357	1351
4.231868505477905	1373
4.23676609992981	1440
4.241732120513916	1360
4.246731281280518	1329
4.25173544883728	1426
4.256731033325195	1400
4.261757850646973	1318
4.266700983047485	1398
4.271659851074219	1444
4.27666974067688	1364
4.281644582748413	1411
4.286625623703003	1520
4.2916553020477295	1479
4.296656847000122	1487
4.301705360412598	1626
4.306777238845825	1636
4.3117287158966064	1590
4.316654682159424	1692
4.32172966003418	1748
4.326761960983276	1670
4.331883668899536	1715
4.336883068084717	1803
4.341874599456787	1733
4.346942901611328	1706
4.3519792556762695	1799
4.3569746017456055	1767
4.36200737953186	1695
4.366982698440552	1780
4.371985912322998	1804
4.377010107040405	1698
4.3819825649261475	1735
4.3869850635528564	1807
4.39210319519043	1712
4.397037506103516	1688
4.4020421504974365	1787
4.4068989753723145	1744
4.411931991577148	1663
4.416935920715332	1743
4.421931266784668	1770
4.4269797801971436	1670
4.431968688964844	1703
4.4369847774505615	1779
4.441962718963623	1696
4.447065830230713	1671
4.452064275741577	1779
4.457175970077515	1757
4.462200403213501	1697
4.4672019481658936	1783
4.4722771644592285	1800
4.477292776107788	1696
4.482237100601196	1739
4.487196207046509	1820
4.492233753204346	1727
4.49726939201355	1676
4.502261161804199	1753
4.507314205169678	1711
4.512314558029175	1647
4.517365217208862	1731
4.522305011749268	1755
4.527308702468872	1662
4.532287120819092	1707
4.537366628646851	1763
4.542413949966431	1664
4.547564268112183	1655
4.552563428878784	1743
4.557573556900024	1689
4.5626208782196045	1634
4.5675742626190186	1709
4.572591543197632	1683
4.577644109725952	1551
4.58271050453186	1416
4.587780237197876	1186
4.592806339263916	858
4.597655534744263	857
4.6026294231414795	1175
4.607695579528809	1231
4.6126649379730225	1035
4.617640733718872	1297
4.622601509094238	1966
4.627656698226929	2514
4.632673740386963	2400
4.637583255767822	1862
4.642667293548584	1536
4.647688627243042	1637
4.65265679359436	1774
4.6577112674713135	1664
4.66268515586853	1567
4.667656660079956	1675
4.672734975814819	1693
4.677730321884155	1591
4.68267560005188	1635
4.687721490859985	1689
4.692746639251709	1595
4.697896957397461	1591
4.702913045883179	1674
4.707971572875977	1614
4.712997913360596	1557
4.7179436683654785	1639
4.722974061965942	1633
4.7279746532440186	1534
4.7329792976379395	1593
4.737975835800171	1637
4.743030786514282	1526
4.748054504394531	1522
4.75301718711853	1604
4.757996082305908	1538
4.762941598892212	1474
4.768000841140747	1557
4.772994756698608	1545
4.777995824813843	1441
4.783037900924683	1498
4.788148403167725	1528
4.793158769607544	1413
4.798144340515137	1422
4.803129196166992	1504
4.808166027069092	1433
4.8131654262542725	1383
4.818207740783691	1474
4.823222875595093	1464
4.828300952911377	1377
4.8333306312561035	1454
4.838418483734131	1506
4.843394041061401	1432
4.848429203033447	1491
4.853463888168335	1612
4.858522891998291	1578
4.863651514053345	1589
4.868638515472412	1722
4.873655796051025	1732
4.878627061843872	1684
4.883633852005005	1784
4.888680696487427	1826
4.893646478652954	1741
4.898568153381348	1792
4.903589725494385	1881
4.908586502075195	1807
4.9136364459991455	1776
4.918700456619263	1874
4.923723936080933	1844
4.928721189498901	1761
4.933645725250244	1841
4.938722848892212	1872
4.943739414215088	1773
4.948888301849365	1805
4.953859567642212	1880
4.958859920501709	1797
4.963739633560181	1766
4.968714237213135	1855
4.973738193511963	1820
4.978680849075317	1736
4.983742952346802	1818
4.988666772842407	1841
4.993668556213379	1734
4.998647928237915	1759
5.00361967086792	1833
5.008610010147095	1756
5.013746738433838	1730
5.018861532211304	1821
5.023797512054443	1783
5.02882194519043	1702
5.0337231159210205	1783
5.038863658905029	1817
5.043764114379883	1722
5.048724412918091	1763
5.0536651611328125	1847
5.058799743652344	1774
5.063821315765381	1756
5.068848609924316	1853
5.0738935470581055	1806
5.0788774490356445	1723
5.0838353633880615	1810
5.088896751403809	1831
5.093863248825073	1701
5.098876237869263	1721
5.103843688964844	1799
5.108813524246216	1714
5.113856077194214	1687
5.118834972381592	1791
5.12393045425415	1753
5.128891468048096	1672
5.133841037750244	1748
5.138741493225098	1768
5.143722057342529	1659
5.148701190948486	1691
5.153697729110718	1766
5.158843994140625	1685
5.163845777511597	1650
5.168761491775513	1715
5.173715114593506	1660
5.178835391998291	1397
5.18379545211792	1174
5.188746213912964	921
5.193706035614014	742
5.19857931137085	937
5.203498601913452	1176
5.20846962928772	980
5.213354825973511	1014
5.218384027481079	1726
5.2234344482421875	2472
5.2284791469573975	2509
5.23345160484314	1982
5.238404989242554	1645
5.2433507442474365	1591
5.248338937759399	1687
5.253390312194824	1740
5.258378505706787	1623
5.263436794281006	1588
5.26842474937439	1691
5.273425817489624	1672
5.278395414352417	1575
5.2833571434021	1633
5.2883501052856445	1674
5.293432950973511	1575
5.298423767089844	1587
5.30367112159729	1662
5.308645725250244	1577
5.3137428760528564	1541
5.318786382675171	1626
5.323745965957642	1587
5.328732252120972	1499
5.333669662475586	1569
5.33867073059082	1593
5.343674898147583	1480
5.3487160205841064	1506
5.353718042373657	1579
5.358750820159912	1489
5.363745450973511	1445
5.368696212768555	1525
5.373650550842285	1482
5.378674030303955	1384
5.3836987018585205	1456
5.388646602630615	1485
5.393665313720703	1374
5.398699998855591	1391
5.403676271438599	1459
5.408675193786621	1374
5.413676977157593	1336
5.418771982192993	1434
5.423720598220825	1410
5.4288551807403564	1324
5.433953523635864	1411
5.438937425613403	1460
5.4438796043396	1394
5.448885679244995	1472
5.453881740570068	1592
5.458873748779297	1555
5.463850259780884	1570
5.468852996826172	1702
5.473861217498779	1706
5.478889226913452	1657
5.483884811401367	1759
5.488982439041138	1801
5.493980884552002	1713
5.499018907546997	1760
5.503963470458984	1835
5.508901119232178	1759
5.51392936706543	1739
5.518960237503052	1833
5.523984432220459	1792
5.528933048248291	1712
5.533984661102295	1796
5.538966178894043	1816
5.543929576873779	1706
5.548877477645874	1736
5.553853750228882	1816
5.558909893035889	1735
5.563913106918335	1706
5.568906545639038	1800
5.573931694030762	1759
5.578920125961304	1673
5.583930015563965	1758
5.588983774185181	1782
5.593937635421753	1675
5.598936557769775	1703
5.603929042816162	1779
5.608911514282227	1697
5.61393141746521	1663
5.619000673294067	1753
5.624036550521851	1716
5.629096031188965	1639
5.634036064147949	1723
5.639042377471924	1757
5.64403223991394	1657
5.648961067199707	1688
5.6540138721466064	1767
5.659086465835571	1685
5.664086818695068	1659
5.669135332107544	1758
5.674107074737549	1722
5.679140090942383	1639
5.684169769287109	1720
5.689128637313843	1744
5.694091558456421	1643
5.699191093444824	1683
5.704190969467163	1760
5.709165096282959	1674
5.714191913604736	1651
5.719139814376831	1745
5.724122047424316	1709
5.729086399078369	1636
5.734041929244995	1716
5.73906683921814	1741
5.74409031867981	1639
5.7491326332092285	1676
5.754047870635986	1749
5.759045600891113	1667
5.764061450958252	1641
5.769165754318237	1739
5.7741639614105225	1699
5.77924108505249	1629
5.784225702285767	1715
5.789217948913574	1734
5.794261932373047	1636
5.799237012863159	1685
5.804238319396973	1765
5.8092873096466064	1672
5.81432318687439	1655
5.8194215297698975	1749
5.8243677616119385	1703
5.8293867111206055	1633
5.8344221115112305	1715
5.839442729949951	1710
5.844455242156982	1592
5.849464416503906	1632
5.854496717453003	1707
5.859517812728882	1620
5.864461421966553	1605
5.869466543197632	1696
5.874504089355469	1652
5.879529714584351	1589
5.884584665298462	1672
5.889582872390747	1672
5.8946356773376465	1569
5.899709224700928	1622
5.904663324356079	1677
5.909738540649414	1581
5.914860248565674	1586
5.919846057891846	1674
5.924896717071533	1605
5.92986536026001	1537
5.934866666793823	1460
5.939875602722168	1158
5.944892406463623	725
5.949834585189819	630
5.954656600952148	793
5.959529161453247	789
5.96444845199585	663
5.969315767288208	924
5.974234580993652	1580
5.979245901107788	2315
5.98424220085144	2572
5.989289999008179	2005
5.9943389892578125	1479
5.9994025230407715	1559
6.0044028759002686	1708
6.009315490722656	1585
6.014315128326416	1521
6.019423484802246	1621
6.024393320083618	1596
6.029380798339844	1518
6.034441232681274	1583
6.039473295211792	1591
6.044517517089844	1492
6.049515962600708	1537
6.054517507553101	1595
6.0595667362213135	1493
6.0646209716796875	1479
6.069547414779663	1570
6.0745298862457275	1514
6.079564809799194	1435
6.084550142288208	1515
6.089584112167358	1521
6.094556093215942	1420
6.099553108215332	1459
6.10454249382019	1519
6.10951566696167	1422
6.1145179271698	1401
6.119524002075195	1484
6.124500751495361	1427
6.129583835601807	1340
6.134667873382568	1418
6.139718294143677	1420
6.144692659378052	1310
6.149759769439697	1344
6.154748439788818	1389
6.1597394943237305	1292
6.164761304855347	1284
6.169738292694092	1378
6.174762487411499	1320
6.179804801940918	1257
6.18486213684082	1349
6.1897430419921875	1362
6.19476318359375	1275
6.199846029281616	1358
6.204749345779419	1456
6.209763765335083	1404
6.214806795120239	1441
6.219848871231079	1577
6.224851846694946	1567
6.229843378067017	1546
6.234859228134155	1669
6.2398457527160645	1701
6.2448413372039795	1623
6.249873876571655	1696
6.254878997802734	1774
6.25984525680542	1686
6.264831304550171	1684
6.26988673210144	1783
6.274855613708496	1730
6.279851198196411	1667
6.2847888469696045	1763
6.28984260559082	1767
6.294836759567261	1666
6.299832105636597	1721
6.304824113845825	1777
6.309839963912964	1685
6.314759016036987	1672
6.3198370933532715	1759
6.324856281280518	1702
6.329888820648193	1642
6.334886789321899	1734
6.339897394180298	1734
6.344894886016846	1631
6.349887371063232	1686
6.354885101318359	1744
6.359877109527588	1639
6.364901304244995	1632
6.36985182762146	1723
6.3748486042022705	1669
6.379864692687988	1605
6.384878873825073	1696
6.389904737472534	1696
6.394924879074097	1596
6.399946689605713	1653
6.404976844787598	1708
6.409918308258057	1621
6.414866209030151	1619
6.419826507568359	1710
6.4248127937316895	1659
6.42985725402832	1601
6.434856176376343	1689
6.439852952957153	1701
6.444767236709595	1600
6.449767827987671	1651
6.454772472381592	1718
6.45984959602356	1624
6.4648802280426025	1614
6.469854116439819	1707
6.474862098693848	1660
6.4798455238342285	1596
6.48485255241394	1682
6.489851236343384	1691
6.4948930740356445	1597
6.4999001026153564	1652
6.504922389984131	1709
6.509925365447998	1616
6.514953851699829	1618
6.520001173019409	1714
6.52496075630188	1655
6.5299811363220215	1589
6.534979343414307	1676
6.539945125579834	1686
6.545031785964966	1588
6.5499961376190186	1644
6.554991006851196	1698
6.5600059032440186	1600
6.565027475357056	1599
6.57005500793457	1692
6.575053930282593	1630
6.580078363418579	1568
6.5850841999053955	1662
6.590007543563843	1666
6.595066547393799	1567
6.6000449657440186	1631
6.605074882507324	1696
6.610076665878296	1609
6.615125417709351	1617
6.620089292526245	1711
6.625115156173706	1653
6.630093097686768	1588
6.635112524032593	1673
6.640100717544556	1675
6.645102500915527	1579
6.650124549865723	1617
6.655156850814819	1653
6.660133361816406	1553
6.665135145187378	1564
6.670256853103638	1662
6.67525315284729	1598
6.680237054824829	1545
6.685253381729126	1641
6.690288305282593	1625
6.695263624191284	1526
6.700153112411499	1586
6.705218076705933	1637
6.710186004638672	1536
6.715183258056641	1538
6.7201268672943115	1629
6.725163221359253	1568
6.730158090591431	1507
6.73520302772522	1589
6.740172624588013	1562
6.745134115219116	1280
6.7500832080841064	1035
6.755043029785156	780
6.759963274002075	556
6.7648701667785645	645
6.769763231277466	784
6.774813890457153	623
6.7797229290008545	810
6.784602165222168	1657
6.789671182632446	2474
6.794671058654785	2366
6.799649953842163	1782
6.8046557903289795	1533
6.809707403182983	1509
6.814709901809692	1546
6.819620609283447	1596
6.824640512466431	1516
6.829689025878906	1447
6.8346734046936035	1545
6.839705228805542	1557
6.844646453857422	1449
6.849668741226196	1484
6.854649305343628	1544
6.85962438583374	1448
6.8645758628845215	1424
6.8695738315582275	1512
6.874537944793701	1468
6.879622220993042	1385
6.884661674499512	1465
6.889620065689087	1486
6.894621133804321	1370
6.899609804153442	1399
6.904630422592163	1474
6.909604549407959	1389
6.914655685424805	1361
6.919638633728027	1442
6.924625635147095	1390
6.929663181304932	1299
6.934636831283569	1380
6.939619302749634	1395
6.944653511047363	1276
6.949641942977905	1302
6.9546966552734375	1360
6.9596848487854	1262
6.964726686477661	1227
6.969663858413696	1316
6.974640607833862	1276
6.979640245437622	1195
6.9846978187561035	1282
6.989696025848389	1302
6.994869232177734	1200
6.999866724014282	1258
7.004883289337158	1344
7.009877443313599	1271
7.014875173568726	1288
7.019861221313477	1432
7.0248918533325195	1433
7.029917001724243	1405
7.0348801612854	1527
7.039876461029053	1588
7.044874429702759	1532
7.049818277359009	1610
7.054877281188965	1696
7.059782266616821	1624
7.064783573150635	1618
7.06990122795105	1730
7.074894428253174	1697
7.07976508140564	1632
7.084791898727417	1710
7.089734077453613	1732
7.094709634780884	1636
7.09966778755188	1679
7.104701042175293	1745
7.109726905822754	1657
7.114724397659302	1633
7.119774580001831	1725
7.124690771102905	1685
7.129692554473877	1615
7.134751796722412	1697
7.139699697494507	1707
7.1446990966796875	1600
7.149774074554443	1636
7.154754638671875	1708
7.159830570220947	1620
7.16485595703125	1602
7.16985559463501	1693
7.174806833267212	1648
7.179858684539795	1574
7.184857606887817	1659
7.189828872680664	1680
7.194843530654907	1579
7.1998350620269775	1625
7.204746961593628	1691
7.209762811660767	1594
7.214864730834961	1569
7.219947338104248	1669
7.224946975708008	1627
7.230019807815552	1562
7.2350380420684814	1649
7.240095376968384	1656
7.245068311691284	1560
7.250002145767212	1610
7.2550787925720215	1679
7.260077238082886	1597
7.265074253082275	1582
7.270042657852173	1670
7.2749621868133545	1630
7.279967308044434	1566
7.284968852996826	1648
7.290136337280273	1659
7.2951319217681885	1560
7.3002028465271	1619
7.305221796035767	1682
7.310208797454834	1585
7.315184116363525	1579
7.320201635360718	1680
7.325125455856323	1640
7.330158233642578	1578
7.335132360458374	1656
7.340071678161621	1665
7.3450446128845215	1569
7.350008726119995	1626
7.355082750320435	1697
7.360028028488159	1613
7.365228652954102	1621
7.370287895202637	1722
7.375271320343018	1665
7.380271911621094	1601
7.385288715362549	1682
7.390212774276733	1680
7.395240545272827	1568
7.400278568267822	1604
7.405203580856323	1659
7.410175323486328	1568
7.4151880741119385	1564
7.420136451721191	1664
7.425206184387207	1618
7.4302003383636475	1547
7.435189723968506	1626
7.440215587615967	1629
7.4452338218688965	1525
7.450234651565552	1572
7.4552178382873535	1633
7.460251092910767	1549
7.465234041213989	1545
7.470224857330322	1620
7.475264549255371	1556
7.480287790298462	1458
7.485266923904419	1335
7.490200042724609	1059
7.4952099323272705	672
7.500192165374756	613
7.505156993865967	747
7.510078430175781	659
7.514986515045166	520
7.519911766052246	947
7.524700880050659	1767
7.52969765663147	2475
7.534664869308472	2398
7.5396809577941895	1765
7.5447328090667725	1420
7.549731731414795	1570
7.5546653270721436	1683
7.559650421142578	1529
7.564647912979126	1463
7.569685459136963	1574
7.574741840362549	1561
7.579721927642822	1471
7.584689378738403	1529
7.589653730392456	1555
7.594628572463989	1455
7.599610090255737	1479
7.604711055755615	1557
7.6097307205200195	1471
7.614748954772949	1446
7.619757413864136	1534
7.624752521514893	1495
7.629688739776611	1410
7.6347668170928955	1484
7.639776229858398	1501
7.644792556762695	1398
7.649846315383911	1431
7.654891490936279	1494
7.659900903701782	1400
7.664901971817017	1363
7.669837474822998	1447
7.674779891967773	1403
7.6797776222229	1314
7.68487286567688	1378
7.6899073123931885	1388
7.6949169635772705	1286
7.699925661087036	1316
7.704910039901733	1374
7.70987868309021	1271
7.7148942947387695	1240
7.719895601272583	1340
7.724893808364868	1303
7.729944944381714	1221
7.7349326610565186	1298
7.739915132522583	1329
7.744906425476074	1249
7.749886512756348	1317
7.755027532577515	1430
7.76003623008728	1393
7.765118837356567	1425
7.770062208175659	1563
7.775040149688721	1570
7.780033111572266	1544
7.785092830657959	1667
7.7900426387786865	1715
7.795120000839233	1640
7.800059080123901	1701
7.805015802383423	1783
7.809991121292114	1708
7.814996004104614	1688
7.819993257522583	1791
7.824990510940552	1762
7.830034971237183	1694
7.8350794315338135	1769
7.840018033981323	1785
7.84505033493042	1683
7.850046873092651	1740
7.85516095161438	1806
7.860208749771118	1711
7.865204095840454	1697
7.870144605636597	1792
7.8751771450042725	1744
7.880192518234253	1675
7.885196924209595	1760
7.890188932418823	1771
7.895214319229126	1670
7.900246620178223	1715
7.9052064418792725	1783
7.91018533706665	1688
7.915173292160034	1666
7.920106410980225	1761
7.925148010253906	1719
7.930127143859863	1646
7.935194969177246	1721
7.940190315246582	1732
7.94522500038147	1632
7.950233459472656	1680
7.955205678939819	1748
7.960209369659424	1661
7.9651854038238525	1647
7.970247268676758	1737
7.975251913070679	1691
7.98029899597168	1627
7.9852659702301025	1713
7.990269899368286	1730
7.9952919483184814	1633
8.000250101089478	1683
8.005322456359863	1752
8.0103440284729	1659
8.015345096588135	1651
8.020344257354736	1746
8.02534031867981	1696
8.030338287353516	1636
8.035351753234863	1724
8.040381908416748	1733
8.0454261302948	1635
8.050433158874512	1688
8.05547022819519	1746
8.060515880584717	1659
8.065571546554565	1661
8.070598363876343	1753
8.07546329498291	1693
8.08043098449707	1631
8.085423946380615	1721
8.090393543243408	1732
8.095423221588135	1630
8.100520133972168	1683
8.105467081069946	1746
8.110491275787354	1649
8.115499019622803	1645
8.120434284210205	1735
8.125494241714478	1678
8.130490779876709	1611
8.135500431060791	1698
8.140496492385864	1717
8.145456552505493	1624
8.150499820709229	1669
8.155663967132568	1721
8.16068720817566	1634
8.165745258331299	1642
8.170785188674927	1729
8.175739049911499	1665
8.180704593658447	1613
8.185687065124512	1706
8.190741300582886	1716
8.195751667022705	1629
8.20076870918274	1690
8.205753564834595	1741
8.21075987815857	1646
8.215771436691284	1649
8.22079348564148	1740
8.225924491882324	1674
8.230736017227173	1600
8.235742807388306	1679
8.240767002105713	1671
8.245744228363037	1585
8.250820636749268	1648
8.255900859832764	1701
8.260786056518555	1611
8.265810251235962	1618
8.270890235900879	1703
8.275896787643433	1636
8.280884265899658	1580
8.285929679870605	1664
8.290907621383667	1658
8.295891046524048	1570
8.300861835479736	1633
8.305899620056152	1683
8.310894012451172	1582
8.315897226333618	1578
8.320975303649902	1604
8.325896501541138	1301
8.330873250961304	928
8.335878610610962	763
8.340779781341553	748
8.345629453659058	779
8.350666284561157	808
8.35554838180542	769
8.360427618026733	1045
8.365455865859985	1842
8.370463371276855	2648
8.375524044036865	2355
8.38053011894226	1637
8.385501146316528	1544
8.390451908111572	1685
8.395529985427856	1619
8.400454759597778	1607
8.405505180358887	1636
8.410552501678467	1565
8.415579795837402	1570
8.420571088790894	1653
8.425499677658081	1589
8.43049669265747	1520
8.435529947280884	1608
8.440485715866089	1614
8.44551682472229	1514
8.450414180755615	1556
8.455425024032593	1611
8.46041989326477	1517
8.465407609939575	1501
8.470403671264648	1592
8.475399017333984	1541
8.480411052703857	1467
8.485427379608154	1542
8.49045205116272	1547
8.49547791481018	1445
8.50047516822815	1481
8.505481958389282	1539
8.510395288467407	1444
8.515360116958618	1420
8.520442008972168	1498
8.525452852249146	1436
8.5304594039917	1350
8.535512685775757	1422
8.54046082496643	1421
8.545497179031372	1308
8.550538539886475	1350
8.555624723434448	1410
8.560667276382446	1308
8.5657057762146	1291
8.57072925567627	1385
8.575704097747803	1337
8.580739259719849	1277
8.58570146560669	1377
8.590722560882568	1404
8.595707178115845	1344
8.600746154785156	1449
8.605799674987793	1559
8.610923051834106	1516
8.615900039672852	1564
8.620934247970581	1694
8.625851154327393	1678
8.63084101676941	1653
8.635808944702148	1763
8.640772581100464	1785
8.645739555358887	1706
8.650726795196533	1775
8.65571403503418	1836
8.660722255706787	1746
8.665736198425293	1746
8.670754671096802	1839
8.675742387771606	1780
8.680777311325073	1716
8.685742855072021	1814
8.690701246261597	1819
8.695733070373535	1719
8.700626850128174	1769
8.705615758895874	1827
8.710642337799072	1734
8.715704202651978	1718
8.72079873085022	1807
8.725658416748047	1756
8.730581760406494	1685
8.735653638839722	1770
8.740680456161499	1781
8.745703935623169	1685
8.75063157081604	1733
8.755743503570557	1793
8.760731220245361	1696
8.765623807907104	1690
8.770748376846313	1784
8.775747060775757	1725
8.780797958374023	1660
8.785728931427002	1749
8.7907075881958	1752
8.795734643936157	1649
8.800698280334473	1704
8.80572772026062	1763
8.810717821121216	1668
8.815789699554443	1667
8.820796489715576	1764
8.825740575790405	1715
8.830690860748291	1647
8.835655689239502	1727
8.8406503200531	1733
8.845715761184692	1637
8.850682020187378	1691
8.85557746887207	1756
8.86057162284851	1666
8.86560320854187	1659
8.870631217956543	1756
8.87568473815918	1703
8.880672693252563	1640
8.885736465454102	1726
8.890728235244751	1730
8.89578366279602	1634
8.900826930999756	1691
8.905846357345581	1746
8.910778760910034	1652
8.915817737579346	1655
8.9208664894104	1750
8.92585277557373	1687
8.930965185165405	1622
8.93596339225769	1709
8.94093656539917	1713
8.94597864151001	1612
8.95097279548645	1673
8.956023931503296	1730
8.96105432510376	1636
8.966007471084595	1636
8.971014022827148	1725
8.975964307785034	1671
8.980936288833618	1606
8.985958814620972	1693
8.990967750549316	1692
8.995954036712646	1599
9.000944137573242	1661
9.005962133407593	1717
9.01088809967041	1621
9.015794277191162	1608
9.02077341079712	1707
9.02582311630249	1658
9.030866622924805	1591
9.03592562675476	1676
9.040940999984741	1681
9.045937299728394	1587
9.05074167251587	1638
9.055753946304321	1697
9.060725450515747	1601
9.065817594528198	1598
9.07080340385437	1692
9.075673580169678	1648
9.080723762512207	1584
9.085752487182617	1669
9.09072494506836	1676
9.095795392990112	1574
9.100818395614624	1626
9.105930805206299	1685
9.110867738723755	1599
9.11596155166626	1603
9.120997428894043	1688
9.12607455253601	1625
9.131124496459961	1573
9.13613748550415	1664
9.141114473342896	1667
9.14611268043518	1571
9.151057481765747	1630
9.155981063842773	1681
9.160980224609375	1586
9.16603708267212	1589
9.171159982681274	1677
9.176161766052246	1615
9.181210279464722	1564
9.186181545257568	1653
9.19111680984497	1648
9.196111917495728	1555
9.201136827468872	1613
9.206114530563354	1667
9.21111011505127	1575
9.216157913208008	1579
9.221137762069702	1668
9.226105213165283	1603
9.23108720779419	1549
9.23603630065918	1635
9.241059303283691	1636
9.246040344238281	1544
9.25109052658081	1603
9.256035566329956	1656
9.261054039001465	1558
9.266036748886108	1564
9.271060466766357	1657
9.275983333587646	1605
9.28103756904602	1554
9.285993814468384	1642
9.29090404510498	1645
9.295981168746948	1550
9.30101490020752	1611
9.305989027023315	1662
9.311104774475098	1575
9.31612777709961	1580
9.321089029312134	1668
9.32606315612793	1604
9.33113694190979	1533
9.336111068725586	1617
9.341147422790527	1612
9.346177101135254	1515
9.351114749908447	1582
9.356111526489258	1648
9.361095428466797	1552
9.366167545318604	1553
9.371279239654541	1641
9.376237154006958	1573
9.381263494491577	1517
9.386268138885498	1601
9.39126205444336	1592
9.39626145362854	1501
9.40126657485962	1565
9.406326293945312	1608
9.411326169967651	1509
9.416399002075195	1502
9.421480655670166	1443
9.42646050453186	1085
9.431471824645996	705
9.436359405517578	639
9.44122862815857	755
9.446029901504517	761
9.450940132141113	671
9.45588755607605	780
9.46080756187439	1247
9.465807914733887	2049
9.47078251838684	2546
9.475772619247437	2030
9.480711221694946	1443
9.485942602157593	1497
9.490983009338379	1609
9.495989322662354	1511
9.50099229812622	1523
9.505974769592285	1571
9.510990381240845	1491
9.51600956916809	1492
9.521019220352173	1577
9.526075839996338	1510
9.53113603591919	1445
9.536113262176514	1537
9.541162967681885	1539
9.546212911605835	1434
9.55118203163147	1482
9.556143283843994	1539
9.56124496459961	1444
9.566213369369507	1440
9.57124376296997	1521
9.576240539550781	1457
9.581264972686768	1400
9.58621883392334	1484
9.591245412826538	1474
9.596314191818237	1371
9.601315259933472	1427
9.606311082839966	1470
9.61132526397705	1358
9.616312980651855	1351
9.621436834335327	1429
9.626375913619995	1351
9.63127326965332	1281
9.636359214782715	1365
9.641331434249878	1351
9.64632773399353	1240
9.651342153549194	1290
9.656308889389038	1342
9.661361932754517	1237
9.66637134552002	1238
9.671339273452759	1331
9.676366090774536	1272
9.68131947517395	1223
9.686290740966797	1329
9.691393375396729	1346
9.696413278579712	1282
9.70144271850586	1395
9.706461429595947	1498
9.711475610733032	1451
9.71644902229309	1506
9.721538543701172	1639
9.726476907730103	1618
9.731399774551392	1604
9.736448764801025	1722
9.741468906402588	1732
9.746448516845703	1648
9.751425743103027	1721
9.756373167037964	1789
9.761316061019897	1700
9.76633882522583	1708
9.771323919296265	1801
9.776321649551392	1740
9.781351566314697	1688
9.786420583724976	1786
9.791345357894897	1782
9.796418905258179	1678
9.801371335983276	1735
9.806421995162964	1790
9.811448574066162	1695
9.816386222839355	1698
9.821397066116333	1786
9.826395034790039	1718
9.831412076950073	1663
9.836463212966919	1755
9.84145212173462	1746
9.846423625946045	1648
9.85138726234436	1713
9.856340408325195	1770
9.86131477355957	1669
9.866291284561157	1665
9.87132477760315	1753
9.87635064125061	1697
9.881324291229248	1641
9.886252164840698	1732
9.891174077987671	1735
9.89619755744934	1632
9.9013090133667	1691
9.906275510787964	1755
9.911337852478027	1661
9.916201829910278	1658
9.921254873275757	1749
9.926234245300293	1692
9.93125295639038	1627
9.936275959014893	1714
9.941311359405518	1723
9.946275472640991	1635
9.951203107833862	1688
9.956176519393921	1734
9.961446523666382	1640
9.966519594192505	1653
9.971524477005005	1744
9.976561784744263	1685
9.98154592514038	1633
9.986560106277466	1717
9.991580963134766	1715
9.996615648269653	1626
10.00162148475647	1690
10.006634950637817	1738
10.011650323867798	1646
10.016604661941528	1661
10.021580696105957	1748
10.02655029296875	1678
10.031671047210693	1629
10.036668062210083	1721
10.041668891906738	1709
10.046716690063477	1618
10.051772356033325	1688
10.056769609451294	1729
10.061898469924927	1625
10.066871881484985	1647
10.071900844573975	1724
10.076926469802856	1652
10.08197283744812	1614
10.086984395980835	1705
10.091946363449097	1684
10.09694242477417	1600
10.101978302001953	1666
10.106953382492065	1698
10.112025499343872	1596
10.117034912109375	1622
10.1220703125	1704
10.12708044052124	1629
10.132018327713013	1592
10.137049674987793	1684
10.14218020439148	1657
10.147159337997437	1577
10.152103662490845	1653
10.157191753387451	1688
10.162231206893921	1591
10.167067766189575	1615
10.172134637832642	1696
10.177137613296509	1617
10.182154417037964	1584
10.18717074394226	1680
10.19218134880066	1648
10.197188138961792	1563
10.202181577682495	1642
10.207237720489502	1682
10.212139368057251	1581
10.21709942817688	1604
10.222119331359863	1681
10.227142095565796	1611
10.232179164886475	1580
10.237281322479248	1669
10.242312669754028	1634
10.247303247451782	1559
10.252233266830444	1643
10.25720477104187	1671
10.262183427810669	1569
10.267264127731323	1600
10.272204160690308	1672
10.277203798294067	1591
10.282205820083618	1561
10.287270307540894	1653
10.292240619659424	1617
10.297341346740723	1539
10.30231523513794	1620
10.307430505752563	1651
10.312420845031738	1552
10.317375421524048	1584
10.322432041168213	1659
10.32745909690857	1580
10.332414388656616	1558
10.337373971939087	1657
10.342386484146118	1626
10.347408056259155	1541
10.352459192276001	1623
10.357407569885254	1657
10.362390279769897	1548
10.36741590499878	1570
10.372483491897583	1649
10.377493381500244	1566
10.38243055343628	1529
10.38748812675476	1616
10.392554759979248	1593
10.397586822509766	1533
10.402537822723389	1620
10.407474040985107	1636
10.41249680519104	1529
10.417477130889893	1563
10.422490358352661	1635
10.427583456039429	1551
10.432576417922974	1530
10.437556743621826	1625
10.442617416381836	1583
10.447610139846802	1506
10.452681303024292	1589
10.457732439041138	1604
10.46269941329956	1435
10.467719793319702	1233
10.472767353057861	972
10.477763414382935	620
10.482680797576904	596
10.487607479095459	845
10.492503643035889	771
10.497471570968628	576
10.50228238105774	1034
10.507309436798096	1866
10.512381553649902	2436
10.517353296279907	2260
10.522357940673828	1739
10.5273916721344	1459
10.53251838684082	1515
10.537485599517822	1643
10.54250955581665	1572
10.547490358352661	1468
10.552534818649292	1559
10.557501077651978	1595
10.562534093856812	1483
10.567486047744751	1511
10.572636842727661	1585
10.577637910842896	1499
10.582810878753662	1478
10.587819814682007	1565
10.592811107635498	1513
10.597808599472046	1438
10.602819442749023	1514
10.607780694961548	1524
10.613001108169556	1421
10.618022680282593	1468
10.622886419296265	1527
10.627981185913086	1430
10.632962703704834	1407
10.637940645217896	1492
10.642974853515625	1438
10.647957801818848	1362
10.652960777282715	1431
10.657935380935669	1434
10.662925958633423	1325
10.667855501174927	1355
10.672876596450806	1410
10.677848100662231	1313
10.682952880859375	1282
10.687966346740723	1364
10.692964315414429	1303
10.697965145111084	1224
10.702961683273315	1309
10.707988739013672	1320
10.712981939315796	1213
10.717962980270386	1263
10.722944021224976	1338
10.727941274642944	1259
10.73304295539856	1268
10.73814058303833	1392
10.743199110031128	1385
10.748116493225098	1371
10.753133058547974	1519
10.75811219215393	1586
10.763189554214478	1531
10.768210172653198	1625
10.773167371749878	1725
10.778202772140503	1662
10.783112049102783	1674
10.788167715072632	1787
10.7932870388031	1745
10.798247575759888	1692
10.803250551223755	1789
10.808266162872314	1805
10.813193082809448	1707
10.818172693252563	1760
10.823166370391846	1822
10.828150272369385	1735
10.833112716674805	1728
10.838063955307007	1825
10.843093633651733	1771
10.848088264465332	1697
10.853066205978394	1785
10.858094215393066	1797
10.863086462020874	1698
10.868063688278198	1741
10.87307095527649	1803
10.878046989440918	1710
10.883073806762695	1703
10.888128519058228	1791
10.893211603164673	1734
10.898095607757568	1670
10.903047323226929	1757
10.908066987991333	1768
10.913097858428955	1668
10.918120861053467	1715
10.923215389251709	1778
10.92822265625	1677
10.933227062225342	1670
10.938191652297974	1763
10.943281650543213	1709
10.94822382926941	1641
10.953238010406494	1726
10.958276748657227	1737
10.963327169418335	1649
10.968183517456055	1696
10.973187685012817	1757
10.978191137313843	1672
10.983165264129639	1669
10.988138198852539	1756
10.993160009384155	1696
10.998132467269897	1634
11.003092527389526	1725
11.008113861083984	1742
11.013216495513916	1640
11.018256425857544	1697
11.02328085899353	1762
11.02825117111206	1671
11.03330683708191	1668
11.038313865661621	1756
11.043306112289429	1701
11.048426151275635	1642
11.05342721939087	1732
11.05830717086792	1735
11.063362836837769	1643
11.068395853042603	1698
11.073339223861694	1751
11.07831335067749	1662
11.083307266235352	1658
11.088322401046753	1739
11.093296527862549	1682
11.09830927848816	1623
11.103313684463501	1709
11.108343839645386	1710
11.113375663757324	1618
11.118344783782959	1672
11.123388051986694	1732
11.128313779830933	1638
11.13344144821167	1634
11.138422012329102	1722
11.143421649932861	1660
11.148366451263428	1600
11.153415441513062	1690
11.158412218093872	1696
11.16336989402771	1595
11.168362140655518	1646
11.173413753509521	1707
11.178385972976685	1620
11.183371305465698	1614
11.188365697860718	1693
11.193367958068848	1635
11.19841194152832	1577
11.203490018844604	1672
11.208475112915039	1678
11.213402271270752	1577
11.218471050262451	1623
11.223487377166748	1675
11.228389501571655	1586
11.233374834060669	1587
11.238340616226196	1676
11.243451356887817	1619
11.248448371887207	1554
11.253450393676758	1641
11.258420944213867	1643
11.263500928878784	1548
11.268407583236694	1601
11.27344822883606	1661
11.278455018997192	1566
11.28346061706543	1562
11.288369178771973	1654
11.293312788009644	1601
11.298420906066895	1541
11.303435564041138	1626
11.308363199234009	1633
11.313518524169922	1534
11.318628072738647	1595
11.323570966720581	1641
11.328594207763672	1542
11.33359432220459	1544
11.338743925094604	1626
11.343787670135498	1555
11.348735570907593	1496
11.35373854637146	1588
11.358696460723877	1586
11.36365532875061	1482
11.368654489517212	1533
11.373701572418213	1575
11.37871503829956	1487
11.383775472640991	1518
11.388714790344238	1625
11.393685579299927	1547
11.398693084716797	1477
11.40366244316101	1567
11.408963680267334	1573
11.413963794708252	1493
11.418880701065063	1559
11.423795700073242	1612
11.428797721862793	1519
11.433690309524536	1529
11.43871808052063	1621
11.443643808364868	1557
11.448689937591553	1505
11.45379114151001	1601
11.45876932144165	1600
11.463799476623535	1502
11.46875	1565
11.473764181137085	1623
11.47872257232666	1528
11.483697652816772	1517
11.488712072372437	1454
11.493739128112793	1102
11.49873399734497	722
11.503589868545532	626
11.508419513702393	701
11.513271570205688	711
11.518202543258667	658
11.523099899291992	758
11.527976274490356	1252
11.532960891723633	2065
11.538005590438843	2593
11.543023109436035	2080
11.547994375228882	1486
11.552990674972534	1529
11.557968854904175	1663
11.562957048416138	1540
11.567963361740112	1505
11.572982788085938	1571
11.57796835899353	1509
11.583031177520752	1489
11.588067293167114	1563
11.593149185180664	1515
11.598111629486084	1442
11.603158712387085	1522
11.608180046081543	1531
11.613225936889648	1425
11.618250370025635	1465
11.623264074325562	1529
11.628296136856079	1441
11.633279085159302	1423
11.638251781463623	1511
11.643234729766846	1462
11.648183822631836	1378
11.653183460235596	1454
11.658238887786865	1466
11.663278818130493	1360
11.668303728103638	1396
11.673271894454956	1449
11.678246021270752	1349
11.683182954788208	1322
11.688221216201782	1402
11.693176507949829	1345
11.698275566101074	1252
11.703310012817383	1317
11.708295106887817	1317
11.713269233703613	1203
11.718250513076782	1233
11.723260164260864	1297
11.72832703590393	1208
11.73332667350769	1189
11.738375425338745	1279
11.74335527420044	1235
11.748425483703613	1167
11.7534019947052	1266
11.758427858352661	1305
11.763391494750977	1237
11.768498659133911	1326
11.77339506149292	1447
11.778395891189575	1418
11.783373832702637	1454
11.788442850112915	1603
11.793460607528687	1600
11.79837942123413	1567
11.80333399772644	1684
11.808380603790283	1722
11.813379049301147	1645
11.818331003189087	1701
11.823428869247437	1773
11.828452825546265	1689
11.833368062973022	1679
11.838437795639038	1779
11.843414306640625	1743
11.848393678665161	1675
11.853530645370483	1760
11.858595848083496	1773
11.863604307174683	1671
11.868561506271362	1722
11.87361764907837	1779
11.878598928451538	1694
11.883620738983154	1688
11.888686180114746	1777
11.893815279006958	1711
11.89875316619873	1656
11.903797626495361	1743
11.90878677368164	1741
11.913717031478882	1642
11.918726682662964	1695
11.923774719238281	1756
11.928775072097778	1668
11.933693408966064	1656
11.93873929977417	1737
11.943728685379028	1687
11.948708534240723	1641
11.953689575195312	1726
11.958695888519287	1729
11.963633298873901	1630
11.968699932098389	1683
11.973697423934937	1744
11.978744745254517	1654
11.983648300170898	1650
11.988677263259888	1746
11.993697881698608	1692
11.998772859573364	1632
12.003794431686401	1718
12.008860349655151	1723
12.013848543167114	1633
12.018857717514038	1690
12.023955583572388	1747
12.028955221176147	1660
12.03399920463562	1662
12.039032936096191	1749
12.044031620025635	1693
12.04900574684143	1636
12.053943157196045	1721
12.058987617492676	1724
12.063939094543457	1636
12.068899154663086	1692
12.074013471603394	1750
12.078978061676025	1659
12.083929777145386	1658
12.088977336883545	1747
12.093984365463257	1689
12.098996639251709	1632
12.103962421417236	1718
12.109015464782715	1717
12.114014863967896	1623
12.118966102600098	1681
12.123984098434448	1732
12.128982305526733	1643
12.133996486663818	1647
12.139006853103638	1737
12.143980264663696	1676
12.148977518081665	1617
12.154003858566284	1704
12.158966302871704	1706
12.16383147239685	1609
12.168827533721924	1669
12.1739342212677	1737
12.178961515426636	1639
12.183904886245728	1635
12.18891429901123	1717
12.193885564804077	1658
12.198890686035156	1605
12.203977346420288	1700
12.20895791053772	1697
12.21395993232727	1596
12.218951940536499	1656
12.224023818969727	1717
12.229028224945068	1620
12.233906030654907	1616
12.238978385925293	1705
12.244006633758545	1654
12.24911093711853	1597
12.254116296768188	1683
12.259104251861572	1684
12.264134168624878	1589
12.269169330596924	1651
12.27416205406189	1697
12.279120683670044	1602
12.28413987159729	1611
12.289155721664429	1690
12.29410982131958	1626
12.299077033996582	1569
12.304136037826538	1652
12.309136629104614	1644
12.314156293869019	1545
12.319169521331787	1591
12.324147701263428	1636
12.329177379608154	1575
12.334173917770386	1616
12.339166402816772	1689
12.344212055206299	1613
12.349210977554321	1557
12.354204177856445	1657
12.35915470123291	1669
12.364083290100098	1579
12.369094848632812	1641
12.374138593673706	1695
12.379136800765991	1607
12.38416862487793	1621
12.389227151870728	1712
12.394214868545532	1646
12.399226665496826	1591
12.404252052307129	1684
12.409277200698853	1673
12.414319038391113	1585
12.41934609413147	1652
12.424345254898071	1693
12.429399251937866	1588
12.434394121170044	1480
12.439352750778198	1289
12.44437050819397	891
12.449203491210938	623
12.454156398773193	767
12.45908236503601	939
12.464075088500977	781
12.468975305557251	797
12.473862886428833	1340
12.478901147842407	2042
12.483879327774048	2563
12.488927364349365	2276
12.493985652923584	1664
12.499030351638794	1499
12.504026412963867	1685
12.509036540985107	1692
12.514102220535278	1548
12.519006252288818	1585
12.524012327194214	1648
12.529033184051514	1561
12.534123182296753	1558
12.539114952087402	1642
12.544107913970947	1576
12.54901909828186	1514
12.554019689559937	1599
12.559045791625977	1601
12.564090967178345	1495
12.569190263748169	1549
12.574230670928955	1601
12.579151630401611	1497
12.58411979675293	1489
12.589148759841919	1568
12.594087600708008	1507
12.599038362503052	1445
12.604023218154907	1527
12.60899543762207	1521
12.613964796066284	1415
12.618969440460205	1455
12.624051094055176	1498
12.629082918167114	1392
12.634013652801514	1378
12.63914179801941	1453
12.644198656082153	1374
12.649176836013794	1304
12.654130458831787	1381
12.659236192703247	1369
12.664210081100464	1258
12.669165849685669	1301
12.674115657806396	1350
12.67914080619812	1247
12.684117078781128	1236
12.68904972076416	1327
12.694093942642212	1280
12.699112892150879	1228
12.704167604446411	1333
12.709184408187866	1374
12.714181900024414	1330
12.719165325164795	1435
12.724123477935791	1543
12.729100942611694	1510
12.734006881713867	1560
12.739123344421387	1692
12.74423623085022	1674
12.749244689941406	1654
12.754270076751709	1766
12.759315967559814	1780
12.76438856124878	1697
12.769260883331299	1769
12.774293184280396	1838
12.779248714447021	1750
12.784242868423462	1752
12.789299249649048	1843
12.794295310974121	1785
12.799219608306885	1722
12.804248571395874	1815
12.809298276901245	1815
12.814305543899536	1720
12.819360733032227	1781
12.824312925338745	1829
12.829313039779663	1729
12.834267616271973	1735
12.839218854904175	1823
12.8442542552948	1761
12.849230766296387	1703
12.854307413101196	1794
12.859336376190186	1786
12.864310264587402	1685
12.869266033172607	1738
12.874282598495483	1790
12.87927770614624	1700
12.884236574172974	1703
12.889243602752686	1790
12.894216060638428	1732
12.89922046661377	1676
12.90419888496399	1761
12.9092116355896	1760
12.914241313934326	1661
12.919219017028809	1715
12.92427682876587	1769
12.929299354553223	1671
12.934318780899048	1670
12.939289331436157	1758
12.944389820098877	1696
12.949358463287354	1647
12.954368591308594	1735
12.959420204162598	1728
12.964394092559814	1638
12.969444274902344	1699
12.974420309066772	1749
12.979470014572144	1651
12.98446798324585	1659
12.989470958709717	1752
12.994488000869751	1682
12.99960207939148	1633
13.00458812713623	1723
13.009553909301758	1712
13.01457667350769	1624
13.019623517990112	1690
13.024639368057251	1732
13.029626369476318	1636
13.03465485572815	1650
13.039634227752686	1732
13.044626712799072	1661
13.049617528915405	1619
13.05465292930603	1710
13.059724569320679	1693
13.064778089523315	1602
13.069835186004639	1675
13.074836492538452	1720
13.079835176467896	1619
13.084909915924072	1636
13.089985609054565	1717
13.094962358474731	1643
13.099920749664307	1607
13.104968309402466	1703
13.110042572021484	1675
13.11506700515747	1593
13.120065927505493	1668
13.12501573562622	1699
13.129934072494507	1604
13.134959697723389	1626
13.139984846115112	1710
13.145025968551636	1637
13.150009870529175	1597
13.155097484588623	1688
13.160091876983643	1659
13.16509485244751	1574
13.170051336288452	1646
13.175074100494385	1679
13.180195569992065	1582
13.185198545455933	1614
13.190171957015991	1692
13.195264339447021	1613
13.200313091278076	1584
13.20536494255066	1670
13.210339307785034	1633
13.215367794036865	1560
13.22035527229309	1642
13.22544813156128	1670
13.230489492416382	1570
13.235430002212524	1609
13.240438222885132	1677
13.245482444763184	1595
13.250436782836914	1573
13.255455732345581	1668
13.260411739349365	1631
13.265381574630737	1552
13.270379781723022	1635
13.27546763420105	1663
13.280519962310791	1565
13.285597801208496	1597
13.29047679901123	1671
13.295451402664185	1590
13.300565242767334	1569
13.305582523345947	1656
13.310707807540894	1605
13.315806150436401	1536
13.320870876312256	1629
13.325913906097412	1636
13.330976009368896	1536
13.336024522781372	1591
13.340966701507568	1641
13.345962524414062	1544
13.35092806816101	1531
13.356001615524292	1620
13.36102294921875	1564
13.366023302078247	1498
13.37110447883606	1570
13.376051664352417	1559
13.381045579910278	1481
13.386049270629883	1577
13.391029834747314	1646
13.39602780342102	1536
13.401089668273926	1519
13.40613341331482	1621
13.411096572875977	1579
13.416123151779175	1521
13.421026229858398	1608
13.42604112625122	1618
13.431090831756592	1528
13.436086654663086	1588
13.441047430038452	1643
13.446043014526367	1544
13.451051712036133	1544
13.456050395965576	1637
13.461133241653442	1581
13.466111183166504	1530
13.471148014068604	1620
13.476178646087646	1619
13.48119854927063	1520
13.486220598220825	1496
13.49113917350769	1304
13.496189594268799	874
13.501051187515259	611
13.505989789962769	712
13.51088833808899	850
13.515780448913574	753
13.520647764205933	720
13.5255126953125	1096
13.53051233291626	1745
13.535483121871948	2459
13.540513753890991	2403
13.545540571212769	1709
13.550532341003418	1444
13.555591583251953	1620
13.560568571090698	1633
13.565497398376465	1522
13.570641279220581	1571
13.575727701187134	1590
13.580653190612793	1501
13.585684776306152	1542
13.590611219406128	1606
13.595565557479858	1516
13.600536346435547	1489
13.605602502822876	1587
13.610598087310791	1548
13.615650653839111	1464
13.62064504623413	1531
13.625562906265259	1549
13.630549192428589	1448
13.635551452636719	1482
13.640572786331177	1541
13.645601272583008	1452
13.650604724884033	1422
13.655628442764282	1511
13.660582780838013	1470
13.665576457977295	1385
13.670596599578857	1454
13.675559520721436	1465
13.68056058883667	1357
13.68564748764038	1382
13.690678119659424	1435
13.695650577545166	1334
13.700657606124878	1290
13.705730438232422	1361
13.71078372001648	1310
13.715681314468384	1225
13.720768213272095	1297
13.725765466690063	1310
13.730906009674072	1192
13.735878229141235	1227
13.741001844406128	1301
13.745838165283203	1222
13.750812530517578	1216
13.755900382995605	1321
13.761006116867065	1293
13.765993356704712	1266
13.771005868911743	1409
13.775969982147217	1474
13.780991315841675	1429
13.785972833633423	1530
13.790996074676514	1642
13.796017408370972	1593
13.801042795181274	1620
13.806047439575195	1742
13.811043500900269	1713
13.816019535064697	1668
13.821058511734009	1765
13.826018333435059	1780
13.831040620803833	1690
13.836004972457886	1745
13.841089963912964	1809
13.846094608306885	1723
13.85106611251831	1717
13.856058120727539	1809
13.861066579818726	1752
13.866018533706665	1689
13.870960474014282	1775
13.87601637840271	1787
13.881003856658936	1687
13.886002540588379	1734
13.89104676246643	1795
13.896070003509521	1704
13.90111517906189	1691
13.906126976013184	1785
13.911128282546997	1737
13.916108131408691	1671
13.921089887619019	1750
13.926046133041382	1762
13.931045770645142	1657
13.936052560806274	1704
13.941131830215454	1768
13.94613003730774	1671
13.951132774353027	1658
13.956203937530518	1751
13.961246967315674	1704
13.966256856918335	1647
13.971266746520996	1726
13.976260662078857	1728
13.981241941452026	1639
13.986237287521362	1695
13.991153717041016	1753
13.99613070487976	1656
14.001186847686768	1649
14.006211042404175	1744
14.011287927627563	1692
14.016284465789795	1631
14.021207094192505	1716
14.026235103607178	1721
14.031266212463379	1626
14.036262512207031	1682
14.041249990463257	1739
14.046210050582886	1648
14.05122995376587	1643
14.056159019470215	1735
14.061182975769043	1684
14.066186904907227	1624
14.071165323257446	1713
14.076237440109253	1717
14.081233024597168	1620
14.086286783218384	1670
14.091229438781738	1726
14.096244812011719	1632
14.101247072219849	1633
14.106261491775513	1719
14.111262798309326	1669
14.116135120391846	1611
14.121161699295044	1698
14.12610673904419	1707
14.131085872650146	1610
14.136064291000366	1662
14.141009330749512	1734
14.146024465560913	1641
14.151004076004028	1619
14.156028270721436	1712
14.161034107208252	1667
14.166034698486328	1594
14.170943260192871	1671
14.175941705703735	1687
14.180916786193848	1594
14.185965299606323	1644
14.190962076187134	1710
14.196009635925293	1627
14.201000690460205	1605
14.205910682678223	1691
14.210914134979248	1653
14.215904951095581	1582
14.22088623046875	1666
14.225858449935913	1683
14.230942487716675	1585
14.235879182815552	1628
14.240891695022583	1702
14.24589228630066	1611
14.250905752182007	1591
14.25600814819336	1688
14.261016368865967	1650
14.265923976898193	1578
14.270867824554443	1658
14.27579951286316	1672
14.280828714370728	1573
14.285861015319824	1619
14.29090404510498	1692
14.295907974243164	1603
14.300857782363892	1579
14.305881977081299	1675
14.310871601104736	1638
14.315898656845093	1569
14.321043252944946	1651
14.32595944404602	1665
14.330994844436646	1567
14.335940599441528	1610
14.340966939926147	1680
14.345942258834839	1596
14.350939750671387	1572
14.355916023254395	1665
14.36086916923523	1630
14.36583662033081	1556
14.37094783782959	1642
14.376057386398315	1660
14.381133794784546	1548
14.386193752288818	1577
14.391137838363647	1638
14.396104335784912	1552
14.40107798576355	1542
14.406154870986938	1621
14.411134719848633	1557
14.416159391403198	1491
14.421199798583984	1616
14.426151037216187	1659
14.43108081817627	1544
14.436146020889282	1570
14.441181421279907	1642
14.446228504180908	1576
14.451210498809814	1570
14.456140518188477	1655
14.461106300354004	1611
14.466040849685669	1551
14.47108769416809	1647
14.476109266281128	1659
14.481093168258667	1554
14.486063480377197	1596
14.490985870361328	1671
14.495967626571655	1591
14.501006841659546	1568
14.506057977676392	1659
14.510983943939209	1626
14.516000509262085	1546
14.520955562591553	1590
14.526044845581055	1427
14.530937433242798	1036
14.535962581634521	753
14.54078197479248	696
14.545680522918701	738
14.550509929656982	792
14.555461406707764	756
14.560381889343262	860
14.56533694267273	1401
14.57034420967102	2274
14.575370073318481	2583
14.580410242080688	1932
14.585526943206787	1509
14.590527772903442	1604
14.59555697441101	1609
14.600555896759033	1550
14.605610132217407	1589
14.610494136810303	1565
14.615540504455566	1496
14.620641469955444	1569
14.625647068023682	1585
14.63065481185913	1479
14.635826349258423	1505
14.640965223312378	1583
14.645904064178467	1495
14.650888681411743	1461
14.655898332595825	1548
14.66089415550232	1502
14.6659255027771	1417
14.67095160484314	1490
14.67592716217041	1509
14.680850982666016	1400
14.685892820358276	1427
14.69095492362976	1490
14.696009874343872	1397
14.70091724395752	1363
14.706011772155762	1445
14.71099042892456	1401
14.71598196029663	1313
14.720921993255615	1386
14.72598123550415	1403
14.730904340744019	1285
14.735893726348877	1298
14.74088716506958	1358
14.745912313461304	1261
14.750815868377686	1218
14.755841732025146	1304
14.76088809967041	1267
14.765888452529907	1176
14.770999431610107	1244
14.776000261306763	1274
14.780999422073364	1172
14.78592038154602	1206
14.790886640548706	1304
14.795835256576538	1251
14.800818681716919	1243
14.805846214294434	1373
14.810831069946289	1395
14.815820693969727	1376
14.820818662643433	1507
14.825852632522583	1589
14.831004858016968	1530
14.835975885391235	1608
14.840963125228882	1714
14.845973014831543	1658
14.85095477104187	1650
14.855969429016113	1756
14.860940217971802	1738
14.865873336791992	1672
14.870889902114868	1748
14.875875234603882	1776
14.880987644195557	1673
14.886031150817871	1704
14.891078472137451	1777
14.896119117736816	1700
14.901122570037842	1680
14.906153917312622	1768
14.911142110824585	1728
14.916187286376953	1652
14.921116352081299	1731
14.926142692565918	1749
14.93117070198059	1650
14.936193466186523	1689
14.941107034683228	1751
14.94618535041809	1663
14.951173305511475	1643
14.956093549728394	1728
14.96101975440979	1686
14.966047048568726	1617
14.970974683761597	1695
14.976091146469116	1713
14.981137037277222	1611
14.986174583435059	1655
14.991100549697876	1726
14.996122598648071	1640
15.001096963882446	1610
15.006113529205322	1699
15.011169910430908	1670
15.016059160232544	1600
15.021159172058105	1676
15.026130437850952	1698
15.031131029129028	1602
15.036141157150269	1633
15.041108846664429	1704
15.04604721069336	1629
15.05105972290039	1605
15.056110858917236	1699
15.061090230941772	1662
15.066060066223145	1585
15.071090936660767	1667
15.076063871383667	1696
15.08106017112732	1596
15.086076498031616	1627
15.091054439544678	1703
15.096031665802002	1627
15.101030588150024	1591
15.106033325195312	1689
15.111106634140015	1667
15.116073846817017	1591
15.12113094329834	1665
15.126078128814697	1689
15.13122820854187	1584
15.136155128479004	1617
15.141073942184448	1693
15.146072149276733	1618
15.151103019714355	1589
15.156128406524658	1680
15.161100387573242	1649
15.16617727279663	1573
15.171099185943604	1650
15.176124811172485	1678
15.181154727935791	1580
15.186229467391968	1618
15.191176414489746	1684
15.196231842041016	1596
15.201208591461182	1574
15.206247568130493	1671
15.211283683776855	1641
15.216295957565308	1556
15.221338748931885	1635
15.226381063461304	1654
15.231409072875977	1556
15.236429691314697	1607
15.241427421569824	1676
15.246448040008545	1591
15.251463413238525	1572
15.256488800048828	1662
15.261436462402344	1621
15.266412019729614	1549
15.271405696868896	1630
15.276479959487915	1646
15.28150463104248	1544
15.286530494689941	1592
15.291478157043457	1661
15.296498537063599	1571
15.301530361175537	1557
15.30655574798584	1650
15.311779975891113	1596
15.31675124168396	1525
15.321678638458252	1605
15.326746702194214	1602
15.331772089004517	1500
15.33687949180603	1554
15.34187364578247	1604
15.34693169593811	1494
15.351969718933105	1488
15.3570396900177	1617
15.36203670501709	1589
15.366963386535645	1515
15.372052907943726	1579
15.377017736434937	1591
15.381908655166626	1519
15.386893272399902	1585
15.391906023025513	1634
15.396852016448975	1540
15.401819944381714	1540
15.4068284034729	1641
15.41189193725586	1597
15.416934490203857	1529
15.42191743850708	1610
15.427075862884521	1616
15.432056427001953	1525
15.43703031539917	1587
15.442016363143921	1642
15.446967601776123	1548
15.45199465751648	1536
15.457008123397827	1606
15.462039232254028	1404
15.466936349868774	1071
15.47195816040039	864
15.47681713104248	680
15.481624603271484	624
15.486531972885132	804
15.491412162780762	845
15.496387958526611	740
15.501326560974121	1224
15.506427526473999	2178
15.511401653289795	2605
15.516335248947144	2064
15.52136516571045	1617
15.526362895965576	1592
15.531431198120117	1601
15.536426544189453	1614
15.541468143463135	1617
15.546480417251587	1516
15.55149793624878	1514
15.556488990783691	1616
15.56155514717102	1570
15.566514253616333	1486
15.571533203125	1559
15.576436996459961	1581
15.581362962722778	1485
15.586446285247803	1520
15.591616153717041	1585
15.59651255607605	1498
15.601531028747559	1471
15.606444597244263	1559
15.611471176147461	1518
15.616482257843018	1442
15.621484756469727	1516
15.626517295837402	1527
15.631505966186523	1422
15.636491060256958	1456
15.641514778137207	1520
15.64664602279663	1427
15.651620864868164	1393
15.65669059753418	1474
15.661608695983887	1421
15.666572570800781	1328
15.671544075012207	1393
15.676565885543823	1403
15.681618928909302	1283
15.686736345291138	1299
15.691736698150635	1353
15.696832656860352	1258
15.701812744140625	1237
15.706926345825195	1322
15.711858987808228	1275
15.717046022415161	1213
15.72205662727356	1301
15.727006435394287	1316
15.732002258300781	1240
15.736977577209473	1323
15.741907358169556	1430
15.746956586837769	1391
15.752058506011963	1436
15.757027864456177	1583
15.762048959732056	1585
15.766960620880127	1567
15.77211880683899	1692
15.777155876159668	1735
15.782118082046509	1667
15.787081003189087	1740
15.792001485824585	1816
15.797003507614136	1742
15.80196213722229	1741
15.806952476501465	1840
15.811920642852783	1798
15.817026138305664	1737
15.821848392486572	1824
15.826830863952637	1840
15.831856489181519	1749
15.836970329284668	1792
15.841858863830566	1851
15.846874237060547	1762
15.851906061172485	1749
15.856992959976196	1843
15.861992597579956	1800
15.867052793502808	1735
15.872043371200562	1815
15.877005100250244	1823
15.881919384002686	1725
15.88695764541626	1771
15.891987323760986	1835
15.897024393081665	1739
15.902075290679932	1726
15.907100200653076	1816
15.912093877792358	1762
15.917150259017944	1690
15.922090768814087	1771
15.92714524269104	1779
15.932219505310059	1683
15.937273979187012	1733
15.942343950271606	1785
15.94729471206665	1694
15.952289819717407	1696
15.957385778427124	1786
15.962393045425415	1726
15.967414140701294	1673
15.972374200820923	1763
15.977348566055298	1768
15.982338666915894	1677
15.987314939498901	1731
15.992292404174805	1784
15.997324228286743	1685
16.002310037612915	1688
16.007301330566406	1780
16.01222062110901	1734
16.017133474349976	1672
16.022188663482666	1756
16.027236223220825	1761
16.032230615615845	1667
16.037108182907104	1715
16.04205822944641	1776
16.047036170959473	1686
16.052047729492188	1677
16.05704426765442	1767
16.062061309814453	1721
16.06703805923462	1654
16.07204270362854	1737
16.077069759368896	1748
16.082163333892822	1651
16.087224006652832	1698
16.092161893844604	1755
16.09717059135437	1664
16.102191925048828	1660
16.10722041130066	1748
16.112308502197266	1695
16.117291688919067	1639
16.122286558151245	1722
16.12730050086975	1724
16.132267475128174	1635
16.137270212173462	1686
16.142343282699585	1735
16.147390365600586	1645
16.15236258506775	1638
16.157354593276978	1722
16.162424325942993	1664
16.167364597320557	1614
16.17244291305542	1698
16.177476406097412	1698
16.182453155517578	1606
16.18745994567871	1666
16.1923930644989	1716
16.19742178916931	1621
16.20239019393921	1625
16.207414865493774	1713
16.212435960769653	1652
16.21739959716797	1586
16.222405195236206	1664
16.227347373962402	1668
16.232324361801147	1574
16.23731756210327	1625
16.24231266975403	1681
16.247413158416748	1593
16.252382040023804	1588
16.25733733177185	1667
16.262284994125366	1601
16.267293214797974	1537
16.27232837677002	1617
16.277345657348633	1620
16.2823224067688	1523
16.287331104278564	1561
16.292397022247314	1602
16.297476053237915	1506
16.302441596984863	1530
16.30740189552307	1652
16.31233811378479	1601
16.317413806915283	1518
16.322346925735474	1591
16.327373027801514	1601
16.332396030426025	1524
16.337496519088745	1586
16.342442750930786	1645
16.347440242767334	1558
16.35239863395691	1571
16.357420206069946	1661
16.36246967315674	1603
16.367534160614014	1547
16.372520446777344	1631
16.3774733543396	1632
16.382471323013306	1543
16.387474536895752	1604
16.392497062683105	1663
16.397583484649658	1567
16.40259313583374	1557
16.407573223114014	1524
16.412558555603027	1198
16.41748809814453	804
16.422390937805176	689
16.427338123321533	784
16.432257413864136	835
16.437193632125854	787
16.442039728164673	840
16.44701862335205	1238
16.451895475387573	1957
16.456894397735596	2560
16.46191906929016	2185
16.46700358390808	1554
16.471940517425537	1515
16.476939916610718	1622
16.48194646835327	1545
16.487022638320923	1545
16.491995573043823	1594
16.497018814086914	1520
16.502098083496094	1509
16.50710368156433	1595
16.51205277442932	1544
16.517117023468018	1474
16.522088289260864	1556
16.52701997756958	1572
16.532042503356934	1467
16.53698968887329	1500
16.54202389717102	1569
16.547040224075317	1484
16.55204701423645	1455
16.557063102722168	1542
16.562013387680054	1498
16.567018270492554	1415
16.57199764251709	1489
16.57699990272522	1513
16.581960439682007	1405
16.587063789367676	1430
16.59213876724243	1497
16.597086191177368	1404
16.60202670097351	1365
16.607123613357544	1445
16.61218571662903	1396
16.61725425720215	1316
16.622170448303223	1377
16.627077102661133	1382
16.63202214241028	1270
16.637099027633667	1294
16.642123460769653	1354
16.647149801254272	1265
16.652122259140015	1230
16.657081842422485	1317
16.662049770355225	1287
16.666942596435547	1216
16.671998739242554	1301
16.676969289779663	1345
16.682099103927612	1276
16.687164068222046	1346
16.692091941833496	1462
16.697093963623047	1435
16.702085733413696	1460
16.707025051116943	1603
16.71209740638733	1623
16.717126846313477	1591
16.722152709960938	1694
16.72715926170349	1750
16.732248067855835	1677
16.737278699874878	1713
16.742264986038208	1795
16.747281551361084	1736
16.752301931381226	1716
16.757355213165283	1801
16.76246929168701	1773
16.767503261566162	1707
16.77251887321472	1765
16.7774338722229	1789
16.782377004623413	1715
16.787353992462158	1742
16.79235577583313	1797
16.797426223754883	1731
16.802473545074463	1707
16.80750799179077	1781
16.812567710876465	1746
16.81751823425293	1681
16.822601556777954	1743
16.82763671875	1766
16.832686185836792	1682
16.83771514892578	1706
16.842658281326294	1761
16.847646951675415	1693
16.852628231048584	1666
16.85762882232666	1734
16.862716674804688	1708
16.867711067199707	1652
16.872775077819824	1710
16.877849340438843	1723
16.882798433303833	1641
16.887848138809204	1673
16.892839431762695	1726
16.897933959960938	1661
16.902910709381104	1650
16.907930374145508	1722
16.91292905807495	1688
16.917880535125732	1633
16.922909259796143	1695
16.927940607070923	1713
16.933016538619995	1638
16.938008546829224	1673
16.94303321838379	1722
16.94807744026184	1654
16.953040838241577	1642
16.95794653892517	1713
16.9629328250885	1676
16.967923879623413	1628
16.97290277481079	1690
16.978007793426514	1696
16.98302412033081	1620
16.98802947998047	1657
16.993019580841064	1713
16.997942209243774	1648
17.002972841262817	1636
17.008005619049072	1704
17.013078451156616	1670
17.018181324005127	1620
17.02318263053894	1686
17.028133392333984	1694
17.033187866210938	1626
17.03818106651306	1664
17.043131828308105	1706
17.04816198348999	1637
17.053179025650024	1636
17.058189392089844	1710
17.063212156295776	1667
17.068257808685303	1618
17.073235273361206	1685
17.07826066017151	1692
17.083228826522827	1616
17.08827805519104	1654
17.093286275863647	1696
17.098336458206177	1623
17.103333711624146	1626
17.108436107635498	1694
17.11348795890808	1650
17.118489265441895	1611
17.123471975326538	1678
17.12853717803955	1674
17.133451223373413	1603
17.138482809066772	1648
17.143478393554688	1687
17.14854884147644	1611
17.153564929962158	1608
17.158568620681763	1671
17.163567304611206	1615
17.168580770492554	1568
17.173535346984863	1632
17.178471326828003	1631
17.183449745178223	1542
17.188384532928467	1565
17.193326234817505	1630
17.19832181930542	1601
17.203367471694946	1610
17.208380937576294	1658
17.21349263191223	1601
17.21851897239685	1571
17.223517417907715	1655
17.2284893989563	1658
17.233537197113037	1588
17.238531589508057	1629
17.243408203125	1679
17.248430252075195	1613
17.25347900390625	1611
17.25846004486084	1675
17.263438940048218	1633
17.26848292350769	1595
17.273464679718018	1663
17.278452157974243	1662
17.283427953720093	1591
17.288413047790527	1633
17.293365955352783	1682
17.298407316207886	1556
17.30341339111328	1325
17.308390140533447	1089
17.31341242790222	774
17.31832718849182	682
17.32323694229126	838
17.32805633544922	789
17.333048343658447	600
17.337881088256836	997
17.342669010162354	1817
17.34765863418579	2492
17.352782726287842	2370
17.357765197753906	1831
17.36280107498169	1553
17.367847681045532	1565
17.3727970123291	1664
17.377880573272705	1649
17.382874727249146	1545
17.387872457504272	1584
17.392895221710205	1645
17.397845029830933	1568
17.402899026870728	1541
17.407995223999023	1608
17.41296076774597	1573
17.418046236038208	1512
17.423012495040894	1566
17.42803955078125	1578
17.432989597320557	1498
17.4380145072937	1520
17.442957878112793	1564
17.44801688194275	1489
17.45301866531372	1470
17.45788025856018	1538
17.46285891532898	1495
17.46791386604309	1420
17.47299313545227	1472
17.47793436050415	1486
17.48301887512207	1397
17.488067150115967	1415
17.492949962615967	1458
17.498019456863403	1371
17.502996921539307	1340
17.508085250854492	1403
17.51322865486145	1360
17.518244743347168	1291
17.523264408111572	1333
17.52822208404541	1335
17.533265352249146	1248
17.538317918777466	1274
17.54339599609375	1319
17.548374891281128	1243
17.55337643623352	1229
17.558392763137817	1308
17.563374757766724	1283
17.568447828292847	1248
17.57347297668457	1338
17.578524351119995	1377
17.583513975143433	1342
17.58853554725647	1438
17.593486785888672	1540
17.598435163497925	1513
17.603497743606567	1555
17.608511924743652	1667
17.61351227760315	1661
17.618500232696533	1641
17.623444318771362	1726
17.6284441947937	1751
17.633479595184326	1687
17.63852095603943	1733
17.64353847503662	1788
17.648536682128906	1726
17.653515338897705	1728
17.658544063568115	1798
17.663551092147827	1754
17.66852641105652	1700
17.673538208007812	1769
17.6785147190094	1774
17.683511972427368	1701
17.688515186309814	1740
17.69353985786438	1784
17.6985125541687	1715
17.703537702560425	1709
17.70856285095215	1774
17.71361255645752	1722
17.718619346618652	1668
17.723742723464966	1744
17.72871160507202	1744
17.73367714881897	1667
17.738698720932007	1711
17.743667125701904	1753
17.748758554458618	1673
17.75374174118042	1671
17.758760452270508	1738
17.76379656791687	1699
17.7687771320343	1660
17.773857355117798	1725
17.77888822555542	1708
17.78380560874939	1628
17.788838863372803	1673
17.793816328048706	1719
17.798815965652466	1646
17.803816556930542	1646
17.808757781982422	1713
17.81371831893921	1669
17.81873345375061	1625
17.82366394996643	1695
17.828683853149414	1700
17.83369517326355	1629
17.838744163513184	1674
17.843724250793457	1719
17.848752737045288	1638
17.853835821151733	1643
17.85878086090088	1720
17.863807439804077	1671
17.868871450424194	1628
17.87386178970337	1701
17.878936767578125	1701
17.883949279785156	1625
17.88889193534851	1671
17.89388871192932	1713
17.898905515670776	1635
17.903912782669067	1651
17.90902018547058	1729
17.914029359817505	1670
17.918956518173218	1624
17.92401623725891	1699
17.92904305458069	1690
17.93399143218994	1612
17.938961505889893	1661
17.94394302368164	1711
17.9489164352417	1637
17.953930616378784	1645
17.95887303352356	1714
17.963882207870483	1659
17.968889236450195	1615
17.97388792037964	1687
17.97887682914734	1677
17.983914613723755	1601
17.988908052444458	1645
17.99391460418701	1674
17.999024868011475	1578
18.003963470458984	1589
18.009015560150146	1657
18.01402473449707	1585
18.019025087356567	1529
18.024073362350464	1618
18.02909541130066	1645
18.03405785560608	1580
18.03916311264038	1624
18.044222593307495	1655
18.04927372932434	1574
18.054322957992554	1601
18.059349298477173	1678
18.064300298690796	1625
18.06926989555359	1593
18.074272871017456	1675
18.07927179336548	1665
18.08422064781189	1592
18.089250326156616	1642
18.09424638748169	1678
18.099276065826416	1595
18.104216814041138	1611
18.10920000076294	1677
18.114221572875977	1620
18.119243621826172	1586
18.124247550964355	1655
18.12924814224243	1601
18.13424015045166	1334
18.139197826385498	1116
18.144172191619873	879
18.149072408676147	657
18.15397548675537	730
18.158857822418213	887
18.16377830505371	730
18.16866970062256	827
18.173540592193604	1632
18.178574800491333	2476
18.1835777759552	2478
18.18869161605835	1904
18.193599224090576	1598
18.19863772392273	1588
18.20360827445984	1650
18.208642959594727	1670
18.213619232177734	1578
18.21856713294983	1520
18.22360396385193	1604
18.228671073913574	1619
18.233670234680176	1522
18.238598346710205	1550
18.243642807006836	1601
18.24870491027832	1517
18.25372862815857	1505
18.258805990219116	1580
18.26371169090271	1534
18.268726348876953	1467
18.27378249168396	1533
18.27874994277954	1541
18.283722400665283	1451
18.288711547851562	1477
18.293752908706665	1529
18.298824548721313	1449
18.303757667541504	1423
18.308739185333252	1495
18.31373167037964	1456
18.318830251693726	1383
18.323785305023193	1437
18.328807592391968	1437
18.333764791488647	1341
18.338787317276	1369
18.34381365776062	1407
18.34872007369995	1315
18.35389018058777	1288
18.35890221595764	1356
18.36389994621277	1295
18.368953704833984	1220
18.37398624420166	1289
18.37902855873108	1299
18.383988618850708	1218
18.388993978500366	1258
18.393930196762085	1320
18.39891028404236	1259
18.40389323234558	1271
18.408840656280518	1378
18.413864850997925	1376
18.418898582458496	1365
18.423905611038208	1484
18.428845643997192	1551
18.433844089508057	1515
18.438833236694336	1600
18.44373917579651	1695
18.448834657669067	1650
18.4539053440094	1655
18.45876693725586	1753
18.463720321655273	1728
18.4687340259552	1674
18.47379159927368	1754
18.478790044784546	1779
18.483733415603638	1696
18.48882269859314	1738
18.493846893310547	1800
18.498783349990845	1728
18.503884077072144	1710
18.50885319709778	1790
18.513841152191162	1755
18.51891851425171	1686
18.523805618286133	1753
18.528847217559814	1776
18.533886909484863	1686
18.53886842727661	1718
18.5438449382782	1783
18.54877281188965	1712
18.553879499435425	1686
18.55892300605774	1771
18.563897609710693	1735
18.568845987319946	1663
18.573743104934692	1731
18.57875680923462	1752
18.583818674087524	1667
18.588788747787476	1690
18.5938458442688	1754
18.5989248752594	1680
18.603871822357178	1658
18.608842134475708	1736
18.613837242126465	1702
18.618876934051514	1632
18.623872756958008	1696
18.62886905670166	1721
18.6338472366333	1644
18.63885760307312	1670
18.64381504058838	1728
18.6487877368927	1659
18.65385341644287	1636
18.658830642700195	1717
18.663841009140015	1688
18.66881775856018	1623
18.67374563217163	1681
18.678746700286865	1705
18.6836838722229	1625
18.68873357772827	1654
18.69372844696045	1716
18.698697566986084	1651
18.703706741333008	1621
18.708683729171753	1697
18.71371841430664	1680
18.718724012374878	1611
18.723830699920654	1674
18.72884225845337	1700
18.73382067680359	1613
18.738837003707886	1636
18.743840217590332	1698
18.748798370361328	1641
18.75391173362732	1622
18.75889563560486	1693
18.763740062713623	1671
18.768787622451782	1604
18.77378273010254	1665
18.77876353263855	1708
18.78375220298767	1627
18.788792371749878	1633
18.793826818466187	1700
18.79879856109619	1654
18.803882837295532	1616
18.808927536010742	1675
18.813978672027588	1649
18.819010972976685	1578
18.82407522201538	1631
18.82907724380493	1660
18.834001779556274	1567
18.83906865119934	1568
18.844131231307983	1653
18.84910249710083	1640
18.85402750968933	1605
18.85908555984497	1653
18.864129304885864	1635
18.869104385375977	1584
18.874135971069336	1647
18.879188776016235	1676
18.88418197631836	1598
18.88907742500305	1614
18.89407706260681	1685
18.89908790588379	1631
18.90418577194214	1597
18.909186840057373	1664
18.914201021194458	1644
18.919209718704224	1588
18.924179315567017	1648
18.929207801818848	1674
18.93423557281494	1598
18.939335346221924	1608
18.94433283805847	1646
18.949249029159546	1500
18.95427131652832	1237
18.959272146224976	1020
18.96422004699707	774
18.969055652618408	700
18.973884105682373	919
18.97879910469055	1014
18.983789205551147	818
18.98870086669922	1113
18.99366307258606	1925
18.998757362365723	2555
19.003737688064575	2322
19.008713722229004	1780
19.01367735862732	1562
19.018737077713013	1586
19.02371048927307	1659
19.028714418411255	1644
19.033853769302368	1533
19.038810968399048	1551
19.04381537437439	1632
19.048843383789062	1579
19.053855419158936	1528
19.05904722213745	1593
19.06396722793579	1591
19.06895613670349	1521
19.074031352996826	1553
19.07904362678528	1580
19.083926677703857	1506
19.08896541595459	1512
19.093974351882935	1571
19.098947048187256	1511
19.103877544403076	1468
19.108806848526	1525
19.113802909851074	1514
19.118972301483154	1439
19.123897552490234	1473
19.128926038742065	1496
19.133952856063843	1410
19.138967752456665	1409
19.144065618515015	1464
19.149117946624756	1396
19.15403461456299	1347
19.15901017189026	1396
19.163978099822998	1375
19.16899013519287	1284
19.17409086227417	1315
19.17909550666809	1340
19.184102058410645	1253
19.189188241958618	1251
19.194111347198486	1309
19.19904112815857	1254
19.204047441482544	1206
19.20907187461853	1268
19.214085817337036	1269
19.219200372695923	1222
19.224183320999146	1296
19.229151725769043	1374
19.23406195640564	1341
19.23911190032959	1399
19.244080066680908	1517
19.249099254608154	1522
19.254141569137573	1530
19.259114503860474	1640
19.264097929000854	1669
19.26914072036743	1630
19.27418279647827	1697
19.279176235198975	1756
19.284149169921875	1696
19.289129495620728	1715
19.294193029403687	1788
19.29914879798889	1745
19.304096221923828	1706
19.30906057357788	1775
19.31410574913025	1771
19.31909680366516	1710
19.324007272720337	1755
19.329013109207153	1794
19.334015130996704	1721
19.33904719352722	1726
19.34406280517578	1791
19.349061012268066	1750
19.354095697402954	1707
19.359000205993652	1768
19.363972187042236	1765
19.368980884552002	1691
19.37395143508911	1729
19.378986358642578	1771
19.38395929336548	1700
19.38891077041626	1700
19.3938889503479	1764
19.399072647094727	1719
19.404053449630737	1674
19.408965349197388	1740
19.413956880569458	1735
19.41909694671631	1669
19.424089193344116	1703
19.429121494293213	1739
19.43401002883911	1670
19.438994646072388	1671
19.443949222564697	1743
19.44894790649414	1697
19.45401406288147	1651
19.458973169326782	1717
19.464100122451782	1718
19.469090700149536	1656
19.47411799430847	1693
19.47909116744995	1731
19.484029531478882	1658
19.489050149917603	1665
19.494045972824097	1738
19.499205112457275	1695
19.504161834716797	1657
19.509177207946777	1727
19.514137268066406	1725
19.519174575805664	1652
19.524206161499023	1692
19.529377222061157	1731
19.534311532974243	1661
19.53926992416382	1675
19.544315099716187	1740
19.549341440200806	1689
19.55438232421875	1655
19.55945062637329	1716
19.56450366973877	1711
19.56957507133484	1648
19.574503421783447	1698
19.579553365707397	1723
19.58457326889038	1649
19.589541912078857	1668
19.59451127052307	1734
19.599403619766235	1678
19.604450225830078	1644
19.609474658966064	1714
19.61454749107361	1705
19.6195285320282	1650
19.624651193618774	1707
19.62959384918213	1740
19.63452458381653	1669
19.639662504196167	1689
19.644657135009766	1746
19.64972710609436	1688
19.654691219329834	1662
19.65966272354126	1715
19.66457724571228	1668
19.66956853866577	1591
19.674553632736206	1650
19.67950749397278	1684
19.68457055091858	1606
19.689573287963867	1617
19.694523334503174	1683
19.699498891830444	1634
19.704597234725952	1600
19.70961022377014	1659
19.714755535125732	1641
19.719693422317505	1575
19.72469210624695	1628
19.729713916778564	1657
19.734676837921143	1579
19.73970937728882	1590
19.744741201400757	1651
19.749813079833984	1505
19.75485396385193	1229
19.759838581085205	977
19.76473641395569	734
19.769619941711426	694
19.774516105651855	898
19.779419898986816	872
19.784281015396118	762
19.78925633430481	1207
19.794302463531494	2033
19.799299478530884	2556
19.80431842803955	2196
19.80943465232849	1667
19.814324378967285	1516
19.819314002990723	1529
19.8242928981781	1608
19.82929301261902	1617
19.834298610687256	1525
19.83930230140686	1531
19.844286680221558	1604
19.84919309616089	1558
19.85430884361267	1509
19.859410047531128	1573
19.864422082901	1563
19.869515895843506	1492
19.87452983856201	1536
19.87954616546631	1567
19.884552478790283	1488
19.889636516571045	1493
19.89466166496277	1552
19.899765968322754	1491
19.90473747253418	1449
19.90969491004944	1516
19.914700984954834	1498
19.919689655303955	1424
19.924702644348145	1461
19.929805517196655	1487
19.93471097946167	1404
19.93980383872986	1408
19.944777011871338	1461
19.949787616729736	1389
19.95484471321106	1340
19.959919452667236	1398
19.96491050720215	1370
19.96992540359497	1292
19.974838495254517	1325
19.97981333732605	1340
19.98487639427185	1252
19.989871740341187	1256
19.994922161102295	1313
19.99991464614868	1259
20.004891872406006	1235
20.00987720489502	1310
20.014851331710815	1304
20.019965171813965	1256
20.0249080657959	1339
20.02990484237671	1415
20.034852027893066	1384
20.039896726608276	1450
20.04491400718689	1567
20.049890279769897	1563
20.054917573928833	1577
20.059858560562134	1689
20.06486940383911	1706
20.069848775863647	1669
20.074933290481567	1742
20.079943656921387	1780
20.08489489555359	1712
20.08981466293335	1736
20.094947814941406	1800
20.099946975708008	1744
20.104898691177368	1716
20.10997438430786	1788
20.115015983581543	1772
20.11999201774597	1710
20.124969482421875	1758
20.129942178726196	1782
20.134960889816284	1711
20.140075206756592	1734
20.145129203796387	1791
20.150201082229614	1725
20.155171632766724	1701
20.16017484664917	1775
20.16519784927368	1747
20.170241355895996	1683
20.17535662651062	1739
20.180322408676147	1757
20.185304880142212	1681
20.190330743789673	1703
20.195415496826172	1761
20.20039463043213	1695
20.205426692962646	1682
20.210519313812256	1749
20.215553760528564	1713
20.220556497573853	1665
20.225611925125122	1729
20.23060441017151	1736
20.235605478286743	1661
20.240620851516724	1689
20.245646476745605	1749
20.25058627128601	1681
20.255653142929077	1677
20.260701417922974	1745
20.265652179718018	1703
20.27077627182007	1652
20.275719165802002	1716
20.28065514564514	1726
20.28566813468933	1658
20.290675401687622	1689
20.295658111572266	1739
20.30075716972351	1667
20.30579376220703	1660
20.310807704925537	1733
20.315689086914062	1694
20.320659160614014	1642
20.32573127746582	1706
20.33078169822693	1719
20.335845708847046	1648
20.340993404388428	1687
20.34597158432007	1731
20.35086178779602	1662
20.355974912643433	1658
20.361051082611084	1719
20.36600375175476	1676
20.371057510375977	1637
20.37613034248352	1706
20.380962133407593	1711
20.385972499847412	1639
20.390958786010742	1673
20.39594793319702	1726
20.40094757080078	1666
20.405915021896362	1669
20.410884141921997	1736
20.41587519645691	1697
20.4208767414093	1647
20.425907611846924	1712
20.430893421173096	1717
20.435904026031494	1637
20.44094705581665	1649
20.445941925048828	1685
20.451012134552002	1620
20.45591974258423	1621
20.461029052734375	1698
20.466024160385132	1657
20.471002340316772	1616
20.47602128982544	1679
20.48110270500183	1678
20.486101150512695	1602
20.491132974624634	1637
20.496139764785767	1678
20.501051902770996	1606
20.506085634231567	1606
20.511231184005737	1676
20.516169548034668	1634
20.521183967590332	1589
20.52615475654602	1655
20.531092405319214	1591
20.536122798919678	1291
20.541151523590088	1029
20.54612922668457	817
20.551027059555054	724
20.55587601661682	821
20.56069564819336	826
20.565547943115234	732
20.570445775985718	1089
20.575423002243042	1896
20.58039164543152	2579
20.58548069000244	2325
20.59051012992859	1736
20.595455646514893	1574
20.60046148300171	1578
20.605522632598877	1596
20.61051845550537	1637
20.615479230880737	1590
20.620556592941284	1538
20.6255521774292	1601
20.630500555038452	1611
20.635491371154785	1528
20.640469551086426	1547
20.645466089248657	1598
20.65048861503601	1532
20.655572175979614	1519
20.660643815994263	1584
20.665671586990356	1541
20.670735359191895	1478
20.6757709980011	1538
20.68068766593933	1546
20.68572235107422	1468
20.690751791000366	1492
20.695745944976807	1539
20.70068621635437	1459
20.70573663711548	1433
20.710654973983765	1491
20.71564245223999	1453
20.7207293510437	1396
20.725650787353516	1443
20.73064923286438	1444
20.73577117919922	1363
20.740757942199707	1381
20.74570631980896	1417
20.750685453414917	1332
20.75575852394104	1312
20.76077675819397	1377
20.765849113464355	1331
20.770864009857178	1267
20.77579689025879	1323
20.780810356140137	1333
20.785844564437866	1262
20.79086971282959	1296
20.79583764076233	1357
20.800914525985718	1305
20.805991888046265	1321
20.810887813568115	1428
20.815864086151123	1440
20.82083249092102	1437
20.825844526290894	1544
20.830754280090332	1603
20.835787057876587	1579
20.840758800506592	1643
20.845757722854614	1721
20.85076403617859	1679
20.855762720108032	1690
20.86073875427246	1768
20.865762948989868	1746
20.870754957199097	1704
20.875754833221436	1771
20.880716562271118	1788
20.885759353637695	1715
20.8907310962677	1748
20.895653247833252	1805
20.9006826877594	1740
20.905659437179565	1717
20.9106502532959	1783
20.915706872940063	1756
20.920687198638916	1701
20.92562437057495	1754
20.930634021759033	1767
20.93566346168518	1689
20.94071626663208	1715
20.945717096328735	1766
20.95082974433899	1696
20.955780744552612	1682
20.960764169692993	1747
20.965810537338257	1718
20.970788955688477	1667
20.97581124305725	1729
20.980907678604126	1740
20.98585796356201	1663
20.99086904525757	1691
20.99582314491272	1746
21.000834703445435	1676
21.00577402114868	1658
21.01082468032837	1728
21.015884399414062	1692
21.020872831344604	1637
21.02599811553955	1698
21.031041145324707	1715
21.035970211029053	1643
21.04094362258911	1676
21.045934677124023	1726
21.05089783668518	1660
21.055872440338135	1651
21.060778379440308	1722
21.06575846672058	1685
21.070750951766968	1631
21.07572913169861	1690
21.0808002948761	1708
21.08577871322632	1635
21.090829133987427	1670
21.095746755599976	1725
21.100771188735962	1654
21.105692148208618	1644
21.110734224319458	1720
21.115819692611694	1684
21.120824337005615	1626
21.125739812850952	1694
21.130746603012085	1707
21.13577699661255	1628
21.140830039978027	1662
21.14577865600586	1721
21.150694131851196	1653
21.155704975128174	1636
21.160728216171265	1708
21.165661811828613	1682
21.170674562454224	1634
21.175642490386963	1691
21.180641651153564	1703
21.185621738433838	1629
21.19067096710205	1659
21.19567561149597	1712
21.200645923614502	1642
21.20561647415161	1633
21.210663557052612	1710
21.215665102005005	1680
21.220720767974854	1628
21.225746393203735	1688
21.230720043182373	1693
21.235721349716187	1626
21.24070429801941	1657
21.24569582939148	1693
21.250696182250977	1610
21.255695581436157	1593
21.260729789733887	1655
21.265802145004272	1622
21.27078914642334	1590
21.27574110031128	1662
21.280767679214478	1656
21.285759925842285	1588
21.290804147720337	1637
21.295830726623535	1668
21.300797700881958	1578
21.305785179138184	1596
21.310728073120117	1667
21.315728902816772	1600
21.320693254470825	1560
21.32564687728882	1642
21.330618619918823	1627
21.33560562133789	1544
21.340601205825806	1557
21.345672845840454	1393
21.35075616836548	1007
21.35576057434082	747
21.360623359680176	778
21.365498065948486	827
21.370399951934814	746
21.375275135040283	725
21.38034200668335	1097
21.385381937026978	1753
21.39038395881653	2474
21.39538049697876	2429
21.400400161743164	1752
21.405456066131592	1492
21.41045117378235	1619
21.415455102920532	1620
21.420400619506836	1545
21.425353288650513	1587
21.430346727371216	1601
21.435356855392456	1530
21.440330028533936	1560
21.445362329483032	1598
21.45037317276001	1522
21.4553701877594	1516
21.46033000946045	1577
21.465278387069702	1532
21.470357656478882	1479
21.47537851333618	1541
21.480385303497314	1540
21.48537564277649	1461
21.490402460098267	1497
21.49537944793701	1531
21.500428915023804	1451
21.505403757095337	1445
21.51046371459961	1500
21.5154070854187	1453
21.52038049697876	1404
21.525430917739868	1454
21.53044557571411	1446
21.535499095916748	1364
21.540485858917236	1393
21.545482397079468	1425
21.550454139709473	1347
21.555482149124146	1334
21.560433387756348	1387
21.565479278564453	1336
21.57050585746765	1277
21.575459957122803	1326
21.58040142059326	1331
21.585437536239624	1260
21.590458154678345	1296
21.595474004745483	1351
21.60048794746399	1290
21.605457544326782	1289
21.61048412322998	1377
21.61550784111023	1366
21.6205050945282	1341
21.62550377845764	1450
21.630494117736816	1510
21.635462999343872	1484
21.640509843826294	1564
21.6454758644104	1665
21.650478839874268	1641
21.655560970306396	1664
21.660595893859863	1751
21.665637254714966	1729
21.670654296875	1696
21.675658226013184	1772
21.68062710762024	1785
21.685704469680786	1715
21.690757513046265	1760
21.695714235305786	1809
21.700706243515015	1742
21.705744743347168	1737
21.710695505142212	1802
21.71574902534485	1765
21.720757246017456	1711
21.725812435150146	1778
21.730857610702515	1785
21.735905647277832	1711
21.740928649902344	1748
21.745928287506104	1794
21.750937938690186	1718
21.755994081497192	1714
21.760981798171997	1786
21.765926599502563	1743
21.770894289016724	1690
21.77590322494507	1750
21.780950784683228	1754
21.785991430282593	1680
21.79098081588745	1713
21.79598093032837	1763
21.801031827926636	1688
21.806084632873535	1694
21.810976028442383	1767
21.815995931625366	1724
21.821009159088135	1672
21.825981855392456	1744
21.830971002578735	1751
21.83600950241089	1680
21.841009855270386	1716
21.84608483314514	1764
21.851121425628662	1691
21.856093883514404	1693
21.86109685897827	1758
21.866109132766724	1720
21.871158123016357	1684
21.87615704536438	1754
21.881120204925537	1752
21.88615393638611	1679
21.89108657836914	1724
21.896160125732422	1770
21.901068210601807	1698
21.906107902526855	1701
21.91113781929016	1774
21.916141271591187	1735
21.921082973480225	1688
21.926154375076294	1756
21.931105375289917	1759
21.93610668182373	1695
21.94105553627014	1734
21.94605803489685	1781
21.95105791091919	1718
21.956084966659546	1730
21.961071968078613	1808
21.966108083724976	1770
21.971081733703613	1722
21.9760582447052	1793
21.980982303619385	1794
21.986083984375	1722
21.991055011749268	1756
21.99610948562622	1780
22.00110697746277	1681
22.00606107711792	1679
22.01105785369873	1756
22.01606297492981	1719
22.021083116531372	1675
22.02608323097229	1743
22.03110980987549	1744
22.036107778549194	1661
22.041043996810913	1696
22.046066761016846	1745
22.051063299179077	1673
22.056114196777344	1668
22.061110496520996	1732
22.0661199092865	1688
22.07108759880066	1650
22.076067209243774	1717
22.08106279373169	1712
22.086113929748535	1541
22.09108829498291	1346
22.096168994903564	1133
22.101216077804565	833
22.106077194213867	792
22.110982656478882	907
22.11582612991333	786
22.12081027030945	749
22.125654935836792	1397
22.13069438934326	2291
22.135666131973267	2682
22.14063811302185	2242
22.145663022994995	1741
22.150585651397705	1618
22.155593633651733	1709
22.160619974136353	1761
22.165590286254883	1664
22.17059326171875	1590
22.17564296722412	1672
22.180684804916382	1694
22.185710191726685	1611
22.190730094909668	1633
22.19577121734619	1683
22.200735330581665	1616
22.20573925971985	1596
22.210685968399048	1661
22.215688467025757	1626
22.220610857009888	1557
22.225608587265015	1615
22.23061227798462	1629
22.23566460609436	1551
22.240737915039062	1570
22.245816707611084	1617
22.250857830047607	1544
22.255743503570557	1524
22.260714530944824	1581
22.26573634147644	1541
22.270798444747925	1478
22.275773286819458	1527
22.280842542648315	1532
22.285787105560303	1448
22.290770053863525	1460
22.295772314071655	1502
22.300773859024048	1424
22.305794715881348	1397
22.310752391815186	1452
22.31588888168335	1406
22.320802927017212	1347
22.325745105743408	1410
22.33074402809143	1429
22.335716724395752	1353
22.340640783309937	1379
22.34566330909729	1442
22.350667476654053	1386
22.35573983192444	1384
22.36075472831726	1487
22.36570692062378	1502
22.370736360549927	1494
22.37574076652527	1599
22.380711555480957	1666
22.385717630386353	1643
22.39073944091797	1710
22.395716428756714	1797
22.400714874267578	1763
22.405672311782837	1772
22.41074228286743	1860
22.41577172279358	1835
22.420794248580933	1786
22.425788640975952	1855
22.430821418762207	1880
22.435773372650146	1803
22.440842628479004	1829
22.445888996124268	1884
22.450790405273438	1823
22.45581889152527	1810
22.460795879364014	1878
22.465843200683594	1844
22.470938444137573	1788
22.475942850112915	1846
22.480984210968018	1859
22.48590588569641	1783
22.490989446640015	1816
22.495977878570557	1870
22.50093698501587	1804
22.505884170532227	1783
22.510931730270386	1844
22.515906810760498	1808
22.520912885665894	1750
22.52588391304016	1812
22.53105640411377	1827
22.535935878753662	1749
22.54097294807434	1777
22.545936584472656	1824
22.550989151000977	1753
22.555962324142456	1741
22.56094741821289	1808
22.565985679626465	1776
22.57099175453186	1721
22.576021194458008	1786
22.58112096786499	1798
22.58604335784912	1727
22.591118812561035	1763
22.596113443374634	1815
22.601171493530273	1744
22.606170892715454	1735
22.61120343208313	1802
22.616203784942627	1764
22.621130228042603	1720
22.626229524612427	1787
22.63126564025879	1797
22.636253356933594	1722
22.6412456035614	1757
22.646266222000122	1804
22.65125012397766	1738
22.656293869018555	1732
22.66123080253601	1800
22.66627812385559	1764
22.67121982574463	1714
22.676273345947266	1778
22.681348085403442	1789
22.686400175094604	1720
22.69136691093445	1768
22.696300268173218	1821
22.701306104660034	1754
22.70633101463318	1753
22.71135115623474	1823
22.716360569000244	1773
22.721474170684814	1722
22.72650694847107	1775
22.731431007385254	1752
22.736416816711426	1664
22.741488933563232	1704
22.746443510055542	1752
22.751436233520508	1679
22.756446838378906	1687
22.76152515411377	1759
22.766523361206055	1715
22.771498918533325	1656
22.776468753814697	1714
22.78153085708618	1710
22.786537885665894	1637
22.791521787643433	1672
22.79649257659912	1708
22.80150580406189	1635
22.80657410621643	1628
22.81154775619507	1682
22.81657361984253	1593
22.821547508239746	1370
22.826577186584473	1190
22.83162546157837	935
22.83652424812317	738
22.84146237373352	822
22.846460342407227	871
22.851322889328003	678
22.856318950653076	978
22.861252069473267	1853
22.866318225860596	2576
22.871418952941895	2391
22.876380681991577	1819
22.88140559196472	1574
22.886459827423096	1604
22.891430854797363	1674
22.89648199081421	1661
22.901584148406982	1549
22.906590938568115	1556
22.911561489105225	1634
22.916520833969116	1589
22.9215087890625	1537
22.92654514312744	1597
22.93156147003174	1593
22.936680793762207	1520
22.94168496131897	1557
22.946675539016724	1582
22.951655864715576	1496
22.9568772315979	1500
22.961891174316406	1563
22.966920375823975	1506
22.971970558166504	1462
22.976957082748413	1521
22.981844902038574	1505
22.986912727355957	1435
22.991892099380493	1476
22.996896266937256	1499
23.001862049102783	1407
23.006919384002686	1400
23.011852025985718	1461
23.01680088043213	1403
23.021869897842407	1347
23.026941299438477	1403
23.032008409500122	1385
23.03707718849182	1303
23.042076110839844	1339
23.047096967697144	1359
23.05210852622986	1273
23.057074308395386	1282
23.062098741531372	1342
23.067108631134033	1285
23.07209873199463	1250
23.077101230621338	1327
23.082130670547485	1323
23.08714270591736	1274
23.09205412864685	1342
23.09703803062439	1413
23.101988554000854	1387
23.106934785842896	1449
23.112053632736206	1554
23.11703586578369	1537
23.122060775756836	1547
23.12695002555847	1661
23.131946802139282	1677
23.13686728477478	1628
23.141939878463745	1695
23.1471426486969	1741
23.152129650115967	1671
23.15714979171753	1693
23.162142038345337	1762
23.16699194908142	1708
23.171993494033813	1666
23.17705249786377	1735
23.182133197784424	1724
23.187066078186035	1665
23.192049741744995	1713
23.197050094604492	1740
23.201997756958008	1663
23.20697569847107	1673
23.212050437927246	1738
23.217122554779053	1681
23.22215723991394	1643
23.227169275283813	1712
23.232117891311646	1695
23.23711133003235	1634
23.2421452999115	1680
23.24715495109558	1710
23.252108573913574	1631
23.257105350494385	1639
23.262243032455444	1700
23.267229795455933	1644
23.272190809249878	1619
23.27725839614868	1688
23.28233051300049	1668
23.287359952926636	1608
23.29242992401123	1661
23.297507524490356	1689
23.30253291130066	1613
23.30757474899292	1636
23.312551975250244	1690
23.317480325698853	1629
23.322481870651245	1613
23.327600717544556	1688
23.3325297832489	1665
23.337565422058105	1602
23.342493534088135	1657
23.34748411178589	1681
23.35246229171753	1607
23.357505798339844	1626
23.362544536590576	1684
23.36762237548828	1622
23.372670650482178	1602
23.377573013305664	1674
23.382454872131348	1651
23.38761329650879	1590
23.392632722854614	1649
23.397619485855103	1671
23.402587413787842	1597
23.4075665473938	1620
23.412585258483887	1682
23.417478322982788	1621
23.42248225212097	1595
23.427520990371704	1668
23.43249487876892	1652
23.43758273124695	1602
23.442466259002686	1666
23.447561979293823	1691
23.452489614486694	1616
23.457448482513428	1634
23.46250629425049	1692
23.467496633529663	1635
23.47244644165039	1597
23.477456092834473	1644
23.482402563095093	1605
23.487430334091187	1545
23.492430210113525	1607
23.497467041015625	1636
23.502522230148315	1564
23.507607460021973	1586
23.512572288513184	1631
23.51755690574646	1561
23.522588968276978	1541
23.52760887145996	1616
23.532612800598145	1590
23.53768277168274	1528
23.542705535888672	1586
23.54772400856018	1610
23.55269980430603	1538
23.55768084526062	1552
23.562755823135376	1588
23.567726373672485	1362
23.57278084754944	1081
23.577854871749878	881
23.582765102386475	714
23.58762216567993	705
23.59247589111328	792
23.5973482131958	707
23.602235317230225	812
23.607078075408936	1497
23.612231016159058	2378
23.6172297000885	2471
23.622265338897705	1840
23.62721562385559	1512
23.632205724716187	1532
23.63725447654724	1539
23.64225673675537	1564
23.647281169891357	1555
23.6522319316864	1485
23.657281160354614	1516
23.662328004837036	1582
23.66733741760254	1509
23.672333002090454	1470
23.677319765090942	1538
23.68238353729248	1522
23.687435626983643	1458
23.692375659942627	1506
23.697404384613037	1526
23.702471017837524	1445
23.7074236869812	1458
23.712443113327026	1510
23.717421770095825	1452
23.722463846206665	1424
23.727440357208252	1487
23.73244571685791	1461
23.737450122833252	1394
23.74242353439331	1438
23.747447967529297	1456
23.752415418624878	1373
23.75745129585266	1379
23.762423753738403	1429
23.767507553100586	1357
23.77248477935791	1306
23.77739191055298	1362
23.782329082489014	1336
23.78743553161621	1253
23.792429208755493	1289
23.79747200012207	1313
23.802499771118164	1236
23.807464838027954	1245
23.812453508377075	1299
23.817413568496704	1242
23.82245135307312	1218
23.827458143234253	1300
23.832499980926514	1302
23.83748984336853	1257
23.84243607521057	1339
23.84743881225586	1414
23.85239577293396	1384
23.85737180709839	1449
23.862446784973145	1563
23.8674373626709	1553
23.872531175613403	1560
23.87750554084778	1663
23.882523775100708	1672
23.887622594833374	1624
23.89257025718689	1690
23.89755606651306	1728
23.902530431747437	1666
23.907538414001465	1690
23.91263222694397	1752
23.917760133743286	1696
23.92272400856018	1673
23.927597284317017	1738
23.932637691497803	1714
23.93763780593872	1656
23.942660570144653	1711
23.947670698165894	1734
23.95264482498169	1660
23.95768165588379	1679
23.962690591812134	1737
23.967655420303345	1674
23.97268843650818	1653
23.977713584899902	1722
23.982698678970337	1692
23.987644910812378	1627
23.992714643478394	1682
23.997708559036255	1702
24.002622365951538	1626
24.007713794708252	1646
24.012763261795044	1707
24.01776361465454	1648
24.02285623550415	1622
24.027768850326538	1688
24.03279948234558	1661
24.03782081604004	1602
24.04288935661316	1664
24.047974824905396	1682
24.052960634231567	1602
24.057871341705322	1629
24.06292152404785	1689
24.06788182258606	1628
24.072871923446655	1605
24.077895879745483	1676
24.082869291305542	1645
24.087883949279785	1588
24.09305763244629	1652
24.098083972930908	1671
24.10306715965271	1596
24.10800266265869	1629
24.11301589012146	1680
24.117997407913208	1612
24.122861862182617	1597
24.12786364555359	1675
24.132841110229492	1650
24.13783621788025	1587
24.142937898635864	1644
24.147887706756592	1668
24.152941703796387	1596
24.157938480377197	1616
24.16295289993286	1667
24.16788601875305	1611
24.172881364822388	1592
24.1778347492218	1664
24.182867765426636	1639
24.18784475326538	1583
24.19284701347351	1642
24.19782018661499	1663
24.20276689529419	1587
24.20776128768921	1608
24.21280002593994	1669
24.217835664749146	1614
24.222920894622803	1596
24.227910041809082	1668
24.232912063598633	1636
24.23790454864502	1572
24.242916584014893	1634
24.24795937538147	1661
24.2529354095459	1593
24.257913827896118	1622
24.262885570526123	1676
24.268062829971313	1602
24.272979736328125	1585
24.278045415878296	1660
24.28298854827881	1628
24.28798484802246	1555
24.292968273162842	1600
24.298166036605835	1606
24.303093671798706	1534
24.308089017868042	1571
24.313037872314453	1639
24.31803822517395	1572
24.323036909103394	1553
24.327998399734497	1624
24.333125829696655	1590
24.338086128234863	1533
24.343082189559937	1592
24.348164796829224	1606
24.353167057037354	1532
24.358221530914307	1564
24.36345410346985	1616
