0.000100135803223	2
0.000205993652344	1578
0.000306129455566	1574
0.000406980514526	1571
0.000507116317749	1567
0.000607967376709	1564
0.000708103179932	1559
0.000808954238892	1553
0.000909090042114	1549
0.00100994110107	1546
0.0011100769043	1545
0.00121092796326	1545
0.00131106376648	1545
0.00141191482544	1548
0.00151205062866	1547
0.0016131401062	1547
0.00171399116516	1549
0.00181412696838	1549
0.00191497802734	1547
0.00201511383057	1547
0.00211596488953	1546
0.00221610069275	1547
0.00231695175171	1548
0.00241708755493	1551
0.00251793861389	1554
0.00261807441711	1555
0.00271892547607	1556
0.0028190612793	1556
0.00292015075684	1556
0.0030210018158	1555
0.00312113761902	1552
0.00322198867798	1547
0.00334000587463	1544
0.00344014167786	1541
0.00354099273682	1541
0.00364112854004	1540
0.003741979599	1540
0.00384211540222	1539
0.00394296646118	1536
0.0040431022644	1536
0.00414395332336	1537
0.00424408912659	1537
0.00434494018555	1534
0.00444507598877	1531
0.00454592704773	1530
0.00464606285095	1530
0.00474691390991	1532
0.00484704971313	1535
0.00494813919067	1537
0.00504899024963	1537
0.00514912605286	1537
0.00524997711182	1539
0.00535011291504	1540
0.005450963974	1538
0.00555109977722	1537
0.00565195083618	1534
0.0057520866394	1532
0.00585293769836	1532
0.00595307350159	1532
0.00605392456055	1533
0.00615406036377	1533
0.00625514984131	1533
0.00635600090027	1533
0.00645613670349	1532
0.00655698776245	1534
0.00665712356567	1533
0.00675797462463	1530
0.00685811042786	1528
0.00695896148682	1527
0.00705909729004	1527
0.007159948349	1528
0.00726008415222	1529
0.00736093521118	1531
0.0074610710144	1529
0.00756192207336	1528
0.00766205787659	1528
0.00776314735413	1527
0.00786399841309	1525
0.00796413421631	1520
0.00806498527527	1514
0.00816512107849	1512
0.00826597213745	1510
0.00836610794067	1508
0.00846695899963	1507
0.00856709480286	1505
0.00866794586182	1504
0.00876808166504	1502
0.008868932724	1500
0.00896906852722	1501
0.00906991958618	1500
0.0091700553894	1498
0.00927114486694	1496
0.0093719959259	1497
0.00947213172913	1499
0.00957298278809	1502
0.00967311859131	1505
0.00977396965027	1508
0.00987410545349	1509
0.00997495651245	1509
0.0100750923157	1509
0.0101759433746	1509
0.0102760791779	1506
0.0103769302368	1502
0.01047706604	1498
0.010577917099	1496
0.0106780529022	1495
0.0107791423798	1494
0.0108799934387	1491
0.0109801292419	1491
0.0110809803009	1490
0.0111811161041	1487
0.0112819671631	1488
0.0113821029663	1486
0.0114829540253	1483
0.0115830898285	1480
0.0116839408875	1479
0.0117840766907	1479
0.0118849277496	1481
0.0119850635529	1483
0.0120859146118	1484
0.012186050415	1485
0.0122871398926	1485
0.0123879909515	1484
0.0124881267548	1484
0.0125889778137	1483
0.0126891136169	1479
0.0127899646759	1474
0.0128901004791	1470
0.0129909515381	1467
0.0130910873413	1467
0.0131919384003	1467
0.0133020877838	1464
0.0134029388428	1463
0.013503074646	1463
0.013603925705	1461
0.0137040615082	1463
0.0138051509857	1461
0.0139060020447	1457
0.014014005661	1455
0.0141141414642	1454
0.0142149925232	1455
0.0143151283264	1456
0.0144159793854	1460
0.0145161151886	1460
0.0146169662476	1461
0.0147171020508	1462
0.0148179531097	1462
0.014918088913	1463
0.0150189399719	1461
0.0151190757751	1457
0.0152199268341	1454
0.0153200626373	1451
0.0154209136963	1450
0.0155210494995	1450
0.0156221389771	1449
0.015722990036	1448
0.0158231258392	1448
0.0159239768982	1446
0.0160241127014	1445
0.0161249637604	1444
0.0162250995636	1442
0.0163259506226	1439
0.0164260864258	1436
0.0165269374847	1435
0.016627073288	1436
0.0167279243469	1436
0.0168280601501	1437
0.0169291496277	1438
0.0170300006866	1437
0.0171301364899	1437
0.0172309875488	1438
0.0173311233521	1438
0.017431974411	1436
0.0175321102142	1434
0.0176329612732	1430
0.0177330970764	1428
0.0178339481354	1428
0.0179340839386	1427
0.0180749893188	1469
0.0181751251221	1470
0.018275976181	1471
0.0183761119843	1474
0.0184769630432	1474
0.0185770988464	1474
0.0186779499054	1474
0.0187780857086	1475
0.0188789367676	1478
0.0189790725708	1478
0.0190799236298	1477
0.019180059433	1477
0.0192811489105	1480
0.0193819999695	1483
0.0194821357727	1487
0.0195829868317	1490
0.0196831226349	1494
0.0197839736938	1497
0.0198841094971	1501
0.019984960556	1504
0.0200850963593	1506
0.0201859474182	1507
0.0202860832214	1506
0.0203869342804	1506
0.0204870700836	1507
0.0205879211426	1510
0.0206880569458	1512
0.0208349227905	1516
0.0209350585938	1518
0.0210380554199	1521
0.0211391448975	1523
0.021714925766	1528
0.0228259563446	1532
0.0231039524078	1534
0.0242071151733	1536
0.0245161056519	1538
0.0252220630646	1542
0.0261161327362	1548
0.0266280174255	1553
0.0272920131683	1557
0.0280389785767	1562
0.0291540622711	1566
0.0294420719147	1570
0.0303249359131	1575
0.0309839248657	1580
0.0315449237823	1581
0.0323569774628	1581
0.0331919193268	1583
0.0337469577789	1586
0.0344579219818	1588
0.0351769924164	1593
0.0358870029449	1597
0.0369091033936	1600
0.0372231006622	1603
0.037985086441	1606
0.0389320850372	1609
0.0393369197845	1610
0.0399439334869	1612
0.0408461093903	1614
0.0416190624237	1616
0.0420970916748	1620
0.0427601337433	1624
0.0434651374817	1628
0.0443539619446	1632
0.0449941158295	1636
0.0456790924072	1638
0.0463850498199	1642
0.0470690727234	1645
0.0478389263153	1646
0.0484931468964	1644
0.0490701198578	1646
0.0498559474945	1645
0.0507609844208	1647
0.0512409210205	1647
0.0519769191742	1648
0.0526599884033	1650
0.0534229278564	1649
0.0539739131927	1652
0.0548310279846	1654
0.0555191040039	1657
0.0562191009521	1657
0.0570659637451	1656
0.0574591159821	1656
0.058403968811	1659
0.058865070343	1662
0.0597469806671	1663
0.0605599880219	1666
0.0611000061035	1670
0.0618450641632	1672
0.0625369548798	1672
0.0633089542389	1673
0.0639441013336	1676
0.0648860931396	1676
0.0653190612793	1674
0.0660181045532	1670
0.0667269229889	1670
0.0676231384277	1668
0.0681071281433	1669
0.0690901279449	1670
0.0695459842682	1671
0.0702660083771	1670
0.0709910392761	1671
0.071622133255	1672
0.0725960731506	1675
0.0728321075439	1674
0.0738821029663	1674
0.0743401050568	1674
0.0750379562378	1677
0.0760960578918	1679
0.0765240192413	1683
0.077507019043	1684
0.0779190063477	1687
0.0786409378052	1687
0.0793571472168	1689
0.0800640583038	1691
0.0809519290924	1691
0.0814220905304	1689
0.0821650028229	1688
0.0828471183777	1684
0.0835700035095	1681
0.0845410823822	1681
0.0849199295044	1679
0.0857241153717	1677
0.0866711139679	1676
0.0870079994202	1674
0.0877289772034	1674
0.0886750221252	1673
0.0891110897064	1675
0.0898730754852	1671
0.090873003006	1672
0.0912489891052	1671
0.0920190811157	1672
0.0927159786224	1675
0.0934309959412	1678
0.0941331386566	1680
0.0951170921326	1683
0.0954959392548	1684
0.0964961051941	1685
0.0968799591064	1685
0.0976629257202	1684
0.0985901355743	1682
0.0990359783173	1679
0.0997729301453	1676
0.100719928741	1674
0.101051092148	1674
0.101874113083	1672
0.102553129196	1673
0.103332996368	1673
0.104201078415	1674
0.104640960693	1676
0.105309009552	1677
0.10601401329	1679
0.107073068619	1675
0.107303142548	1676
0.108140945435	1676
0.108855009079	1676
0.109811067581	1679
0.110926151276	1681
0.111040115356	1682
0.111653089523	1683
0.11236000061	1682
0.113307952881	1683
0.113707065582	1685
0.114459037781	1683
0.115186929703	1679
0.116119146347	1676
0.116475105286	1673
0.117532014847	1672
0.117910146713	1671
0.118664979935	1671
0.119681119919	1670
0.120033025742	1669
0.120782136917	1668
0.121485948563	1669
0.122178077698	1669
0.123227119446	1669
0.123542070389	1667
0.124263048172	1668
0.12501502037	1667
0.125921010971	1669
0.127105951309	1671
0.127232074738	1673
0.12806391716	1674
0.129250049591	1675
0.129364967346	1674
0.129900932312	1675
0.130650043488	1675
0.131334066391	1675
0.132296085358	1669
0.132712125778	1668
0.133492946625	1667
0.134441137314	1666
0.134843111038	1666
0.135553121567	1665
0.136367082596	1665
0.137073040009	1664
0.137655973434	1665
0.138667106628	1664
0.139056921005	1666
0.139816999435	1665
0.140707969666	1664
0.141024112701	1663
0.141852140427	1664
0.142856121063	1666
0.143330097198	1668
0.144277095795	1669
0.144645929337	1671
0.145391941071	1671
0.146110057831	1671
0.147063970566	1672
0.147459030151	1673
0.148199081421	1670
0.148951053619	1668
0.149620056152	1665
0.150324106216	1662
0.151257038116	1663
0.151622056961	1660
0.152645111084	1660
0.153034925461	1659
0.153804063797	1658
0.1544880867	1659
0.155177116394	1657
0.155956983566	1659
0.156641960144	1656
0.15752196312	1656
0.157918930054	1657
0.158709049225	1658
0.159409999847	1661
0.160114049911	1662
0.161075115204	1664
0.161476135254	1666
0.162239074707	1667
0.163166046143	1666
0.163579940796	1667
0.164307117462	1667
0.165338039398	1664
0.165678977966	1660
0.1664249897	1659
0.167398929596	1658
0.168512105942	1657
0.168622970581	1655
0.169546127319	1654
0.170254945755	1654
0.17049407959	1653
0.171370983124	1652
0.172328948975	1653
0.173383951187	1653
0.173535108566	1651
0.174189090729	1649
0.17510509491	1651
0.175431013107	1652
0.176312923431	1654
0.17701792717	1656
0.177711963654	1658
0.178666114807	1660
0.179067134857	1662
0.180064916611	1663
0.180459022522	1664
0.181394100189	1665
0.181802034378	1661
0.182558059692	1657
0.183308124542	1657
0.18394112587	1656
0.184672117233	1657
0.185673952103	1656
0.186761140823	1656
0.186876058578	1654
0.187750101089	1655
0.188955068588	1654
0.18906712532	1656
0.189582109451	1655
0.190319061279	1653
0.190984964371	1651
0.192008972168	1652
0.193051099777	1654
0.193170070648	1655
0.193812131882	1657
0.194528102875	1660
0.195467948914	1660
0.196578979492	1661
0.196691989899	1660
0.197297096252	1661
0.19793009758	1660
0.198714017868	1657
0.199417114258	1651
0.200129985809	1652
0.200855970383	1651
0.201523065567	1650
0.202184915543	1650
0.203195095062	1651
0.203587055206	1651
0.204586982727	1651
0.204875946045	1652
0.205727100372	1654
0.206413030624	1653
0.207364082336	1652
0.207766056061	1652
0.208522081375	1653
0.209527015686	1655
0.209939002991	1657
0.210925102234	1661
0.211333990097	1663
0.212072134018	1664
0.212788105011	1666
0.213688135147	1668
0.21408700943	1671
0.214826107025	1669
0.215557098389	1667
0.216341972351	1665
0.217021942139	1665
0.217684984207	1664
0.21835899353	1662
0.219078063965	1661
0.219717979431	1660
0.220451116562	1657
0.221416950226	1656
0.221811056137	1655
0.222609043121	1654
0.223330974579	1652
0.224318981171	1648
0.224575042725	1643
0.225350141525	1650
0.226302146912	1650
0.226712942123	1652
0.22744512558	1654
0.228160142899	1655
0.228868961334	1658
0.229500055313	1659
0.230229139328	1659
0.231249094009	1661
0.231601953506	1659
0.232583999634	1659
0.232958078384	1659
0.233789920807	1659
0.234472036362	1659
0.235387086868	1660
0.235805988312	1662
0.236535072327	1662
0.237169981003	1664
0.237966060638	1666
0.238915920258	1667
0.239339113235	1669
0.240085124969	1668
0.240734100342	1665
0.241687059402	1665
0.242170095444	1665
0.242841959	1664
0.243499994278	1665
0.244215965271	1665
0.245173931122	1664
0.246381998062	1664
0.246482133865	1662
0.247097015381	1662
0.248047113419	1660
0.248429059982	1656
0.249477148056	1653
0.250555992126	1652
0.25065612793	1653
0.251487970352	1653
0.25199508667	1654
0.252954006195	1654
0.253540992737	1656
0.254312992096	1657
0.254784107208	1659
0.255509138107	1660
0.256464004517	1663
0.256888151169	1664
0.258069038391	1664
0.258240938187	1668
0.259318113327	1673
0.259604930878	1678
0.260401964188	1683
0.26131105423	1688
0.261738061905	1691
0.262465953827	1696
0.263180017471	1699
0.263831138611	1702
0.264562129974	1701
0.265316963196	1701
0.266019105911	1698
0.266993999481	1696
0.267346143723	1694
0.268136024475	1693
0.269000053406	1691
0.269524097443	1689
0.270475149155	1687
0.271630048752	1685
0.271731138229	1683
0.27234005928	1683
0.272928953171	1681
0.273718118668	1678
0.274387121201	1678
0.27515411377	1678
0.276057004929	1680
0.277245998383	1681
0.277346134186	1684
0.27797293663	1684
0.278671979904	1685
0.279367923737	1686
0.280053138733	1688
0.281006097794	1688
0.281445980072	1686
0.282161951065	1683
0.282871007919	1681
0.283507108688	1679
0.284248113632	1678
0.285272121429	1677
0.285702943802	1677
0.286453008652	1675
0.287532091141	1676
0.287755966187	1676
0.288509130478	1676
0.289272069931	1676
0.290174007416	1674
0.290574073792	1673
0.291494131088	1672
0.291940927505	1671
0.292653083801	1672
0.293663024902	1673
0.29478597641	1673
0.294886112213	1673
0.295799016953	1672
0.29688501358	1669
0.296985149384	1667
0.297913074493	1663
0.298300027847	1658
0.299051046371	1649
0.299700975418	1638
0.300475120544	1639
0.301172018051	1633
0.302129983902	1630
0.303211927414	1628
0.303312063217	1626
0.303906917572	1626
0.304677963257	1624
0.305434942245	1629
0.306385993958	1629
0.306724071503	1631
0.307538032532	1632
0.308175086975	1634
0.309190034866	1635
0.309575080872	1640
0.310348987579	1641
0.311053037643	1644
0.311703920364	1645
0.312709093094	1645
0.313074111938	1646
0.313854932785	1646
0.314683914185	1645
0.315542936325	1641
0.315802097321	1637
0.316685914993	1632
0.317656993866	1629
0.318074941635	1627
0.31906414032	1625
0.319464921951	1623
0.320186138153	1621
0.321134090424	1620
0.321545124054	1619
0.322583913803	1620
0.323634147644	1620
0.323817014694	1617
0.324682950974	1617
0.325766086578	1618
0.325935125351	1620
0.326497077942	1623
0.327193975449	1626
0.327899932861	1629
0.32861495018	1631
0.329347133636	1633
0.329941034317	1635
0.330703020096	1636
0.331752061844	1636
0.332065105438	1632
0.333024978638	1631
0.333470106125	1629
0.334481954575	1626
0.334815979004	1626
0.33557510376	1621
0.336343050003	1621
0.337067127228	1618
0.337999105453	1618
0.339056015015	1614
0.339169979095	1613
0.339843988419	1611
0.340517997742	1606
0.341501951218	1604
0.341865062714	1603
0.342673063278	1602
0.343631982803	1603
0.344730138779	1604
0.344914913177	1605
0.345389127731	1605
0.346409082413	1604
0.346807956696	1606
0.347813129425	1608
0.348205089569	1606
0.348910093307	1603
0.349659919739	1601
0.350577116013	1600
0.351027011871	1600
0.351773023605	1600
0.352479934692	1600
0.353142976761	1597
0.353851079941	1596
0.35458612442	1595
0.355521917343	1595
0.355880022049	1594
0.356625080109	1592
0.357378005981	1589
0.358333110809	1589
0.358680963516	1590
0.35947394371	1590
0.360193967819	1593
0.36091709137	1596
0.361558914185	1597
0.362288951874	1598
0.362993001938	1601
0.363703012466	1602
0.364659070969	1603
0.364897012711	1602
0.365921020508	1600
0.366667985916	1598
0.367067098618	1598
0.368119001389	1597
0.368475914001	1596
0.369316101074	1596
0.370001077652	1594
0.370746135712	1594
0.37145113945	1593
0.372401952744	1592
0.372751951218	1588
0.373789072037	1581
0.374138116837	1579
0.374897956848	1576
0.375921964645	1573
0.37627696991	1574
0.377018928528	1572
0.377932071686	1573
0.37841296196	1572
0.379156112671	1572
0.379874944687	1571
0.380569934845	1569
0.38126707077	1563
0.381984949112	1548
0.38267493248	1532
0.383638143539	1511
0.383969068527	1488
0.385025024414	1461
0.385394096375	1430
0.386364936829	1398
0.386868953705	1364
0.387501001358	1329
0.388313055038	1295
0.388999938965	1260
0.389933109283	1226
0.391057014465	1191
0.391169071198	1156
0.391799926758	1123
0.392491102219	1090
0.393083095551	1058
0.394133090973	1026
0.395303964615	991
0.395405054092	964
0.39649105072	939
0.396593093872	914
0.397732973099	894
0.397834062576	876
0.398962020874	858
0.399075031281	846
0.400278091431	835
0.400462150574	829
0.401011943817	827
0.40111207962	828
0.402166128159	830
0.402266979218	840
0.403422117233	852
0.403522968292	869
0.4046459198	892
0.404747009277	919
0.405869007111	945
0.405969142914	973
0.407141923904	996
0.407290935516	1018
0.408066034317	1044
0.408936023712	1062
0.409780025482	1073
0.410938024521	1078
0.411060094833	1075
0.41162610054	1070
0.412372112274	1058
0.413028001785	1046
0.413748025894	1032
0.414467096329	1017
0.415362119675	1004
0.416361093521	994
0.416463136673	991
0.417309045792	993
0.417410135269	1001
0.418367147446	1018
0.419069051743	1048
0.420031070709	1082
0.420408964157	1127
0.421136140823	1178
0.421787023544	1239
0.422555923462	1307
0.423512935638	1382
0.423857927322	1462
0.424655914307	1550
0.425351142883	1644
0.426317930222	1742
0.426643133163	1839
0.427664995193	1940
0.428751945496	2044
0.428875923157	2150
0.42955994606	2257
0.430336952209	2356
0.430974006653	2440
0.431704044342	2509
0.432551145554	2556
0.432929039001	2587
0.4337849617	2595
0.434497117996	2586
0.435157060623	2555
0.436111927032	2507
0.436538934708	2446
0.437343120575	2370
0.437968015671	2286
0.438710927963	2196
0.439666032791	2108
0.44001698494	2012
0.440997123718	1923
0.441437959671	1841
0.442135095596	1767
0.442896127701	1701
0.443586111069	1645
0.444308042526	1598
0.445322036743	1563
0.445512056351	1537
0.446392059326	1519
0.447365045547	1510
0.447679042816	1507
0.448456048965	1507
0.449429988861	1511
0.44983792305	1518
0.450583934784	1527
0.451312065125	1538
0.452014923096	1548
0.452702999115	1558
0.453655004501	1566
0.45484995842	1575
0.454961061478	1585
0.455544948578	1590
0.456130981445	1596
0.457147121429	1600
0.457519054413	1599
0.458306074142	1600
0.459336042404	1601
0.460402965546	1601
0.460524082184	1601
0.461142063141	1600
0.46186208725	1596
0.462572097778	1591
0.463387012482	1590
0.463928937912	1584
0.464658021927	1580
0.465620994568	1571
0.466004133224	1566
0.467008113861	1562
0.467410087585	1558
0.4686460495	1556
0.469588041306	1556
0.469713926315	1553
0.470566034317	1553
0.470948934555	1552
0.471945047379	1552
0.472260951996	1554
0.473140001297	1554
0.473834991455	1553
0.474764108658	1553
0.475094079971	1555
0.476144075394	1557
0.476532936096	1559
0.47755408287	1562
0.478662014008	1564
0.478785991669	1566
0.479388952255	1565
0.480159044266	1566
0.480814933777	1565
0.48149895668	1562
0.482187986374	1558
0.482906103134	1553
0.483597993851	1550
0.484550952911	1548
0.48484992981	1547
0.485723972321	1546
0.486683130264	1545
0.487097024918	1543
0.487837076187	1542
0.488543987274	1543
0.489515066147	1545
0.48988199234	1544
0.490921974182	1542
0.491280078888	1544
0.492074012756	1546
0.492983102798	1548
0.493319034576	1550
0.494163990021	1551
0.49488401413	1552
0.495604038239	1552
0.496385097504	1550
0.497267007828	1549
0.498346090317	1546
0.498470067978	1542
0.499366998672	1537
0.499669075012	1532
0.500481128693	1529
0.501399040222	1524
0.501749038696	1523
0.502810001373	1521
0.503270149231	1520
0.50402712822	1517
0.504703998566	1517
0.505407094955	1517
0.506133079529	1518
0.506886005402	1516
0.507538080215	1514
0.508482933044	1515
0.50891494751	1516
0.509843111038	1518
0.510332107544	1522
0.511223077774	1525
0.511682987213	1526
0.512419939041	1528
0.513138055801	1529
0.513827085495	1530
0.514532089233	1530
0.51525592804	1527
0.516211032867	1524
0.517298936844	1522
0.517426013947	1520
0.517965078354	1520
0.518717050552	1519
0.519680023193	1517
0.520065069199	1516
0.520753145218	1515
0.521779060364	1515
0.522180080414	1516
0.523231983185	1515
0.52360701561	1512
0.524411916733	1510
0.525082111359	1510
0.52607011795	1509
0.526303052902	1511
0.527164936066	1512
0.527851104736	1512
0.528870105743	1512
0.529961109161	1512
0.530086040497	1512
0.53070807457	1511
0.531655073166	1509
0.532767057419	1504
0.53292298317	1500
0.533779144287	1496
0.534109115601	1496
0.53493309021	1494
0.535624027252	1494
0.536381959915	1492
0.537322044373	1491
0.53746509552	1490
0.538660049438	1490
0.539034128189	1491
0.539806127548	1489
0.540501117706	1486
0.541176080704	1484
0.542150020599	1483
0.542551040649	1484
0.543390035629	1485
0.544021129608	1486
0.545001983643	1486
0.545346021652	1486
0.546339035034	1485
0.547500133514	1484
0.547614097595	1482
0.548272132874	1481
0.548951148987	1476
0.549613952637	1473
0.550595998764	1471
0.550925970078	1470
0.551964998245	1469
0.552324056625	1468
0.553118944168	1468
0.55409693718	1465
0.55448102951	1464
0.555246114731	1465
0.556177139282	1465
0.556604146957	1461
0.557322978973	1460
0.558064937592	1457
0.559037923813	1455
0.559349060059	1457
0.560163021088	1458
0.560873985291	1458
0.561831951141	1457
0.562211036682	1458
0.56324005127	1457
0.563549041748	1457
0.564373970032	1457
0.565046072006	1453
0.565748929977	1449
0.566471099854	1446
0.567171096802	1446
0.568135023117	1444
0.568535089493	1445
0.569296121597	1445
0.569986104965	1445
0.570913076401	1444
0.571295022964	1446
0.572338104248	1445
0.572690963745	1447
0.573476076126	1445
0.574162006378	1443
0.574862957001	1443
0.575555086136	1443
0.576508998871	1444
0.576930999756	1445
0.577702999115	1446
0.578383922577	1446
0.579108953476	1445
0.580030918121	1444
0.581184148788	1444
0.581363916397	1444
0.581848144531	1439
0.582840919495	1434
0.583240032196	1431
0.583920955658	1429
0.584687948227	1428
0.585391998291	1426
0.586342096329	1425
0.586730003357	1422
0.58748292923	1421
0.588201999664	1419
0.588917970657	1419
0.58987402916	1417
0.590310096741	1413
0.591265916824	1412
0.591597080231	1413
0.592396020889	1414
0.592980146408	1416
0.59406208992	1418
0.594533920288	1421
0.595276117325	1423
0.595946073532	1423
0.596653938293	1424
0.597590923309	1428
0.597974061966	1429
0.598756074905	1428
0.599426984787	1427
0.600412130356	1427
0.600700139999	1429
0.601552009583	1429
0.60222196579	1430
0.602963924408	1431
0.603866100311	1432
0.604285955429	1431
0.605077028275	1432
0.605785131454	1433
0.606732130051	1433
0.607021093369	1430
0.608160972595	1430
0.608464956284	1431
0.609297037125	1432
0.610266923904	1434
0.610579013824	1436
0.611362934113	1439
0.612030982971	1441
0.612976074219	1442
0.614082098007	1445
0.614243030548	1445
0.615165948868	1445
0.615510940552	1445
0.616562128067	1443
0.61684513092	1443
0.6176841259	1445
0.618384122849	1447
0.619132041931	1448
0.620064973831	1449
0.621117115021	1450
0.621230125427	1452
0.621878147125	1459
0.622631072998	1459
0.623585939407	1460
0.62397313118	1459
0.624720096588	1460
0.62570810318	1463
0.626073122025	1465
0.626789093018	1468
0.627732992172	1470
0.628139972687	1471
0.628931999207	1472
0.629872083664	1472
0.630294084549	1473
0.631009101868	1473
0.631720066071	1472
0.632409095764	1468
0.633125066757	1466
0.633819103241	1465
0.634756088257	1465
0.635187149048	1465
0.635946989059	1465
0.63668012619	1466
0.637283086777	1466
0.638082027435	1468
0.638767957687	1471
0.63970708847	1473
0.640090942383	1475
0.640901088715	1476
0.641520023346	1477
0.64221906662	1481
0.642940044403	1485
0.64364695549	1489
0.644320011139	1493
0.645029067993	1497
0.646039009094	1501
0.64640712738	1502
0.647195100784	1506
0.647886991501	1508
0.648869991302	1509
0.649323940277	1507
0.649913072586	1509
0.650650024414	1511
0.651389122009	1512
0.652383089066	1514
0.652770996094	1517
0.653507947922	1520
0.654228925705	1522
0.655164957047	1524
0.655538082123	1529
0.656561136246	1531
0.656852006912	1534
0.657657146454	1533
0.658376932144	1539
0.659398078918	1542
0.65967297554	1547
0.66051697731	1552
0.661242008209	1558
0.661919116974	1565
0.662614107132	1569
0.663375139236	1573
0.664032936096	1579
0.665003061295	1583
0.665302038193	1584
0.666142940521	1588
0.666855096817	1588
0.667750120163	1591
0.668218135834	1597
0.669163942337	1600
0.669631958008	1605
0.670392036438	1606
0.671010017395	1609
0.671757936478	1612
0.672415018082	1616
0.673332929611	1616
0.673716068268	1616
0.674530029297	1616
0.675224065781	1618
0.676120042801	1622
0.676615953445	1626
0.677644968033	1629
0.678040027618	1634
0.678801059723	1637
0.679734945297	1639
0.680145978928	1642
0.680920124054	1645
0.681821107864	1645
0.682245016098	1644
0.683216094971	1643
0.683659076691	1645
0.684647083282	1645
0.684925079346	1647
0.685858011246	1648
0.686502933502	1649
0.687166929245	1651
0.687889099121	1651
0.688601970673	1654
0.689397096634	1658
0.690235137939	1658
0.690609931946	1657
0.691692113876	1658
0.691908121109	1661
0.693047046661	1665
0.693342924118	1667
0.694174051285	1671
0.694937944412	1673
0.695634126663	1675
0.696569919586	1678
0.696836948395	1679
0.697916984558	1681
0.699101924896	1679
0.699216127396	1676
0.70009303093	1674
0.700470924377	1673
0.701256990433	1671
0.7021920681	1673
0.702597141266	1672
0.703308105469	1673
0.703969955444	1672
0.704971075058	1672
0.705312013626	1673
0.706315994263	1675
0.70744395256	1675
0.707569122314	1674
0.708281993866	1677
0.709154129028	1680
0.709578037262	1683
0.710340976715	1686
0.71097612381	1690
0.711753129959	1691
0.712692022324	1695
0.713047981262	1694
0.714080095291	1695
0.71449303627	1693
0.71524310112	1690
0.715954065323	1683
0.716643095016	1680
0.7173371315	1678
0.717996120453	1676
0.718755960464	1674
0.719449996948	1671
0.720157146454	1669
0.721032142639	1666
0.721549987793	1665
0.722244977951	1666
0.722943067551	1665
0.723644018173	1663
0.724597930908	1662
0.725769042969	1663
0.725880146027	1665
0.726760149002	1668
0.727833032608	1672
0.727944135666	1675
0.728907108307	1677
0.729321956635	1678
0.730010986328	1680
0.730981111526	1682
0.731328964233	1685
0.73210310936	1680
0.732831001282	1680
0.73347902298	1679
0.734440088272	1679
0.734820127487	1677
0.735571146011	1676
0.736367940903	1676
0.737371921539	1673
0.737704992294	1673
0.738415956497	1672
0.739114046097	1671
0.739836931229	1669
0.740467071533	1666
0.741171121597	1665
0.742214918137	1664
0.742618083954	1666
0.743556022644	1667
0.744741916656	1668
0.744926929474	1669
0.745460987091	1672
0.746178150177	1671
0.746856927872	1672
0.747559070587	1673
0.748533010483	1670
0.748893976212	1668
0.749689102173	1666
0.750385046005	1665
0.751070022583	1666
0.751727104187	1665
0.752727985382	1667
0.753036022186	1665
0.753837108612	1666
0.754513978958	1666
0.755540132523	1667
0.75593996048	1670
0.756679058075	1669
0.757411956787	1668
0.758108139038	1667
0.75880408287	1670
0.759511947632	1671
0.760447025299	1675
0.760788917542	1677
0.761651992798	1679
0.762517929077	1678
0.762913942337	1678
0.763668060303	1678
0.764353990555	1678
0.765057086945	1675
0.76599407196	1671
0.76641201973	1668
0.76716709137	1666
0.767904043198	1667
0.768629074097	1666
0.769387960434	1666
0.770296096802	1665
0.770707130432	1665
0.771440029144	1664
0.772125005722	1666
0.773049116135	1668
0.773479938507	1667
0.774440050125	1666
0.774851083755	1667
0.77561211586	1668
0.776355981827	1670
0.777042150497	1673
0.778016090393	1675
0.778412103653	1677
0.779143095016	1677
0.780128002167	1677
0.780529022217	1679
0.781259059906	1677
0.781965970993	1674
0.782891988754	1671
0.783374071121	1668
0.784368991852	1666
0.784671068192	1665
0.785407066345	1665
0.786118030548	1664
0.787141084671	1662
0.787436008453	1661
0.78854393959	1661
0.788774013519	1663
0.789688110352	1663
0.790647029877	1660
0.790926933289	1658
0.791787147522	1658
0.792464971542	1659
0.793362140656	1663
0.793709039688	1663
0.794574975967	1665
0.795409917831	1665
0.79589509964	1667
0.798188924789	1668
0.798376083374	1668
0.798541069031	1668
0.798697948456	1666
0.799428939819	1665
0.800431966782	1664
0.800771951675	1664
0.801732063293	1666
0.80218911171	1667
0.802983045578	1668
0.803703069687	1668
0.804439067841	1670
0.805071115494	1670
0.806040048599	1673
0.807162046432	1672
0.807275056839	1671
0.808145999908	1671
0.808534145355	1671
0.809339046478	1672
0.810291051865	1673
0.81063914299	1674
0.811388015747	1673
0.812122106552	1673
0.812829017639	1671
0.813806056976	1672
0.814114093781	1672
0.815165042877	1668
0.815561056137	1665
0.816337108612	1662
0.817028045654	1662
0.817945957184	1663
0.818289041519	1661
0.819376945496	1662
0.820389032364	1663
0.820490121841	1663
0.821149110794	1663
0.822088003159	1665
0.823250055313	1667
0.823387145996	1666
0.823939085007	1666
0.824615955353	1665
0.825322151184	1668
0.826267957687	1669
0.826688051224	1673
0.827417135239	1676
0.828109025955	1676
0.829071998596	1678
0.829492092133	1679
0.830199956894	1678
0.830915927887	1678
0.831624984741	1676
0.832579135895	1673
0.83299612999	1671
0.833719968796	1668
0.834423065186	1670
0.835369110107	1669
0.835780143738	1668
0.836755990982	1669
0.837190151215	1667
0.83790397644	1666
0.838606119156	1666
0.839313983917	1667
0.840018033981	1664
0.840744018555	1663
0.841408014297	1662
0.84235906601	1665
0.842813014984	1666
0.843527078629	1669
0.844223022461	1672
0.845180988312	1674
0.845600128174	1676
0.84632396698	1678
0.847096920013	1679
0.848019123077	1681
0.848447084427	1679
0.849229097366	1675
0.849904060364	1673
0.85085105896	1672
0.851243972778	1670
0.851946115494	1670
0.852653026581	1669
0.853650093079	1667
0.854030132294	1667
0.854756116867	1668
0.855449914932	1669
0.856569051743	1670
0.856809139252	1669
0.857804059982	1669
0.858210086823	1669
0.858963012695	1672
0.859930038452	1675
0.860383033752	1679
0.861103057861	1680
0.862092971802	1682
0.862462043762	1683
0.863484144211	1686
0.863862991333	1688
0.864648103714	1687
0.865303993225	1685
0.866259098053	1683
0.866675138474	1683
0.867408037186	1681
0.868137121201	1679
0.868755102158	1678
0.869540929794	1680
0.870434045792	1677
0.870871067047	1676
0.871845960617	1676
0.872308969498	1676
0.87325501442	1676
0.873688936234	1672
0.874419927597	1671
0.875196933746	1671
0.875914096832	1673
0.876855134964	1675
0.877293109894	1678
0.878178119659	1679
0.878699064255	1681
0.879425048828	1683
0.88037610054	1686
0.880813121796	1685
0.881523132324	1684
0.882475137711	1682
0.88351392746	1679
0.883614063263	1678
0.884324073792	1679
0.88526892662	1680
0.885721921921	1681
0.886701107025	1680
0.887131929398	1681
0.887848138809	1681
0.888554096222	1683
0.889503002167	1685
0.890545129776	1683
0.890645980835	1683
0.891256093979	1683
0.891927957535	1685
0.892719984055	1687
0.893402099609	1693
0.89449596405	1697
0.895582914352	1700
0.895683050156	1704
0.896233081818	1708
0.896966934204	1711
0.897717952728	1713
0.898394107819	1711
0.899109125137	1708
0.899817943573	1707
0.900635004044	1705
0.901200056076	1706
0.90186214447	1705
0.902550935745	1704
0.903306007385	1704
0.903856039047	1704
0.90492606163	1702
0.906064033508	1701
0.906165122986	1699
0.907033920288	1697
0.907365083694	1693
0.908131122589	1693
0.908936977386	1694
0.909595966339	1694
0.910268068314	1698
0.911261081696	1700
0.911622047424	1702
0.912379026413	1704
0.913027048111	1704
0.913805007935	1705
0.914762973785	1706
0.915265083313	1703
0.916150093079	1699
0.916562080383	1696
0.917308092117	1694
0.917968034744	1693
0.918960094452	1694
0.919408082962	1693
0.920437097549	1691
0.920768022537	1692
0.9215259552	1694
0.922514915466	1694
0.922868967056	1695
0.923895120621	1694
0.924237012863	1694
0.925137996674	1695
0.925756931305	1698
0.926707029343	1701
0.927016019821	1703
0.927767038345	1705
0.928869009018	1707
0.930024147034	1708
0.930161952972	1707
0.930712938309	1707
0.931724071503	1704
0.932070016861	1699
0.933077096939	1693
0.933476924896	1687
0.934235095978	1681
0.934868097305	1676
0.935661077499	1671
0.936397075653	1664
0.937071084976	1659
0.937721014023	1652
0.938444137573	1651
0.939432144165	1647
0.939757108688	1644
0.940784931183	1640
0.941249132156	1638
0.941993951797	1638
0.943094015121	1640
0.943247079849	1642
0.944112062454	1649
0.945138931274	1646
0.945353031158	1648
0.94625711441	1649
0.947008132935	1652
0.94756102562	1655
0.948307991028	1653
0.94926404953	1652
0.949725151062	1650
0.950714111328	1653
0.951066017151	1652
0.952127933502	1654
0.952463150024	1654
0.953275918961	1655
0.954069137573	1654
0.954666137695	1652
0.955445051193	1653
0.95600104332	1654
0.957082986832	1650
0.957343101501	1647
0.95843911171	1646
0.958766937256	1646
0.959850072861	1647
0.96022105217	1647
0.961241006851	1648
0.962316989899	1648
0.962455034256	1648
0.963099956512	1649
0.963797092438	1651
0.96474814415	1653
0.965860128403	1650
0.966006994247	1648
0.966598987579	1648
0.967631101608	1647
0.96786904335	1647
0.968938112259	1647
0.970016002655	1647
0.970158100128	1646
0.971061944962	1645
0.971400976181	1643
0.972207069397	1643
0.972974061966	1642
0.973900079727	1639
0.974172115326	1636
0.975024938583	1635
0.976027965546	1635
0.976408958435	1636
0.977463960648	1634
0.977677106857	1635
0.978502988815	1636
0.979238033295	1635
0.980199098587	1634
0.98139500618	1635
0.981532096863	1635
0.982075929642	1632
0.982732057571	1627
0.983669042587	1625
0.98406791687	1623
0.984879016876	1622
0.985448122025	1622
0.986431121826	1620
0.98687505722	1621
0.98760008812	1619
0.988565921783	1619
0.9888920784	1619
0.989767074585	1618
0.990756988525	1616
0.991059064865	1616
0.991791009903	1616
0.992838144302	1617
0.993066072464	1619
0.993894100189	1621
0.994858980179	1624
0.995335102081	1624
0.996062040329	1625
0.996750116348	1626
0.997707128525	1627
0.998052120209	1626
0.998846054077	1621
0.999546051025	1619
1.0004940033	1617
1.00159311295	1617
1.00176692009	1614
1.00260806084	1613
1.00296211243	1614
1.00397205353	1613
1.00506591797	1612
1.00520300865	1614
1.00580692291	1614
1.00675797462	1614
1.00717496872	1612
1.00816011429	1613
1.00856208801	1610
1.00960493088	1610
1.00996303558	1611
1.01072907448	1610
1.01168608665	1609
1.01196408272	1607
1.0131111145	1609
1.01347613335	1608
1.01421713829	1610
1.01493501663	1607
1.01588892937	1602
1.0163769722	1595
1.01745510101	1586
1.01850414276	1574
1.01862812042	1557
1.01923012733	1537
1.01994991302	1510
1.02065300941	1483
1.02157711983	1452
1.02180695534	1420
1.02273607254	1388
1.02368807793	1352
1.0238969326	1316
1.02492713928	1283
1.02570009232	1251
1.02602910995	1219
1.02696609497	1188
1.02791714668	1158
1.02835702896	1128
1.02906608582	1095
1.02976608276	1063
1.03072714806	1031
1.03105592728	999
1.03208899498	972
1.03219103813	947
1.03344511986	925
1.033618927	911
1.0345621109	894
1.03466391563	884
1.0354321003	878
1.03640604019	875
1.03650808334	873
1.03759002686	873
1.03769302368	879
1.03843712807	888
1.03941607475	903
1.03956913948	924
1.04063606262	945
1.04081511497	972
1.0415699482	1001
1.04246997833	1036
1.04280805588	1068
1.04386997223	1099
1.04433703423	1125
1.0449950695	1142
1.04570293427	1152
1.04643011093	1153
1.04710912704	1150
1.04784202576	1140
1.0485470295	1123
1.04943609238	1106
1.04978704453	1089
1.05090808868	1075
1.05137991905	1063
1.05204796791	1057
1.05274796486	1053
1.05345797539	1058
1.05416512489	1071
1.0548760891	1092
1.05581092834	1125
1.0562081337	1163
1.05687594414	1210
1.05785512924	1268
1.0583050251	1335
1.05920910835	1411
1.05970811844	1497
1.06040811539	1590
1.06130814552	1685
1.06175708771	1784
1.06273198128	1885
1.06316709518	1990
1.06387114525	2102
1.06462597847	2213
1.06555700302	2316
1.06666898727	2415
1.06676912308	2500
1.06741309166	2570
1.06835603714	2618
1.06877493858	2647
1.06975793839	2654
1.0701649189	2637
1.07090592384	2601
1.07162904739	2547
1.07224297523	2478
1.0733101368	2397
1.07438492775	2306
1.0744869709	2209
1.07512307167	2113
1.07583212852	2018
1.07652711868	1928
1.07723903656	1844
1.07820296288	1771
1.07859492302	1704
1.07963395119	1649
1.07992291451	1605
1.08073592186	1570
1.08145308495	1546
1.08215308189	1528
1.08283805847	1517
1.0835621357	1515
1.08450913429	1520
1.08487606049	1529
1.08591413498	1539
1.08700299263	1551
1.08711600304	1562
1.08771300316	1576
1.08870792389	1586
1.08909106255	1597
1.09009504318	1604
1.09042000771	1609
1.09129405022	1614
1.09198713303	1618
1.09268403053	1619
1.0936460495	1623
1.09403896332	1623
1.09478998184	1622
1.09552502632	1619
1.09645795822	1614
1.09682106972	1610
1.09758710861	1605
1.09830904007	1596
1.09899806976	1588
1.09968805313	1581
1.10038995743	1574
1.10137701035	1570
1.10176491737	1567
1.1028239727	1565
1.10313796997	1562
1.10385394096	1561
1.10459208488	1559
1.1052980423	1560
1.10599708557	1561
1.10666298866	1560
1.10770106316	1558
1.10805296898	1558
1.10883712769	1562
1.10970592499	1564
1.11020207405	1567
1.11092805862	1570
1.11183404922	1572
1.11231303215	1573
1.11333203316	1576
1.11369895935	1575
1.1144630909	1576
1.11514806747	1573
1.11582112312	1571
1.1168320179	1567
1.11729097366	1565
1.11821508408	1564
1.11861014366	1561
1.11962914467	1559
1.11995792389	1557
1.12072610855	1556
1.12171292305	1553
1.12212395668	1553
1.12286996841	1551
1.12355899811	1546
1.12423110008	1545
1.12492012978	1544
1.12560892105	1546
1.12625598907	1548
1.12707901001	1551
1.12802600861	1554
1.1284301281	1555
1.12944507599	1557
1.12984704971	1558
1.13058996201	1560
1.13132095337	1560
1.13224196434	1558
1.13335800171	1556
1.13345813751	1555
1.13399505615	1555
1.1347091198	1554
1.13541007042	1553
1.13612294197	1553
1.13708996773	1550
1.13752603531	1550
1.1382651329	1547
1.13899302483	1548
1.13995814323	1546
1.14101004601	1544
1.14113092422	1541
1.14181208611	1542
1.14253997803	1543
1.14346408844	1543
1.14387106895	1544
1.14461112022	1544
1.14531898499	1545
1.14631509781	1544
1.14669108391	1544
1.14762496948	1544
1.14808392525	1541
1.14878892899	1538
1.14976096153	1533
1.15028595924	1531
1.15093803406	1529
1.15163493156	1528
1.15259599686	1527
1.1528711319	1524
1.15375494957	1523
1.1544380188	1522
1.15515398979	1524
1.15609407425	1522
1.15650391579	1519
1.15731096268	1516
1.15794205666	1515
1.15861105919	1516
1.15959501266	1515
1.16003394127	1516
1.16100096703	1517
1.16143798828	1517
1.1621670723	1518
1.16286706924	1519
1.16356992722	1518
1.16423606873	1519
1.16536998749	1518
1.16551709175	1513
1.16631698608	1512
1.16727399826	1510
1.16765999794	1510
1.16848492622	1509
1.16947293282	1509
1.16981005669	1508
1.17057609558	1508
1.17131209373	1508
1.17202115059	1508
1.17291808128	1506
1.17329192162	1503
1.17408800125	1500
1.17482709885	1498
1.17556405067	1497
1.176445961	1498
1.17693209648	1497
1.17761397362	1498
1.17839193344	1497
1.17936301231	1497
1.1796810627	1497
1.18045806885	1497
1.18112611771	1495
1.18210291862	1492
1.18250703812	1488
1.18324708939	1486
1.1840159893	1484
1.18473505974	1483
1.18570303917	1483
1.18606305122	1482
1.18684411049	1482
1.18746304512	1480
1.1884059906	1480
1.18877792358	1480
1.18957495689	1480
1.19026398659	1476
1.19094109535	1474
1.19196105003	1472
1.19298410416	1473
1.19314002991	1473
1.19379901886	1472
1.19474601746	1473
1.19511198997	1474
1.19608902931	1470
1.19650197029	1470
1.1974799633	1469
1.19794201851	1466
1.19871211052	1460
1.19940209389	1458
1.20004200935	1454
1.20073914528	1450
1.20150494576	1448
1.20219492912	1447
1.20288515091	1444
1.20362710953	1443
1.20458602905	1441
1.20563793182	1440
1.20576095581	1440
1.20668911934	1439
1.20703196526	1435
1.20777702332	1434
1.20868992805	1435
1.20918393135	1437
1.20995593071	1437
1.21092796326	1440
1.21131801605	1442
1.21209692955	1442
1.21278309822	1442
1.21372199059	1442
1.21415615082	1442
1.21491098404	1441
1.21584892273	1436
1.21700501442	1434
1.2171189785	1431
1.21768498421	1428
1.21838307381	1427
1.21943211555	1425
1.21954202652	1424
1.22048711777	1422
1.22145104408	1420
1.2218401432	1419
1.22288393974	1419
1.22336411476	1418
1.22427010536	1416
1.22454810143	1414
1.22537112236	1416
1.22607398033	1417
1.22682714462	1419
1.22744011879	1424
1.22816801071	1425
1.22889494896	1425
1.22986292839	1426
1.23029112816	1427
1.23121213913	1429
1.23162007332	1427
1.23265004158	1423
1.23375892639	1420
1.2338719368	1419
1.23449611664	1418
1.23519301414	1418
1.23624801636	1417
1.23655700684	1417
1.23727297783	1415
1.23805093765	1416
1.23875403404	1419
1.23970508575	1420
1.24008202553	1419
1.24090003967	1419
1.24181604385	1419
1.24292802811	1421
1.24305009842	1425
1.24365711212	1429
1.24433898926	1431
1.24505901337	1435
1.24603509903	1438
1.24624705315	1440
1.24716114998	1442
1.2477440834	1445
1.24866294861	1443
1.24923706055	1441
1.24984502792	1441
1.25087714195	1440
1.25133514404	1440
1.25210499763	1442
1.25281596184	1441
1.25375103951	1442
1.25415110588	1444
1.25490307808	1444
1.25561213493	1447
1.25629901886	1448
1.25695705414	1448
1.25966405869	1446
1.25985193253	1448
1.26000905037	1450
1.26015591621	1453
1.26051211357	1456
1.26115608215	1459
1.26188611984	1462
1.26275396347	1464
1.26319694519	1466
1.26427292824	1469
1.26541614532	1470
1.26565098763	1468
1.26635813713	1464
1.26671099663	1464
1.26746201515	1464
1.26851511002	1462
1.26876711845	1462
1.26962995529	1461
1.27056193352	1461
1.27093315125	1462
1.2717089653	1460
1.27240896225	1463
1.2731180191	1463
1.27405714989	1464
1.27445697784	1462
1.27521896362	1465
1.27592206001	1469
1.27661108971	1474
1.27755999565	1479
1.27798295021	1483
1.27881813049	1486
1.27975296974	1489
1.28004312515	1492
1.28076910973	1496
1.28179597855	1499
1.28221607208	1497
1.28325200081	1497
1.28357791901	1497
1.28433203697	1499
1.28540706635	1501
1.2857260704	1503
1.28673601151	1505
1.28711700439	1505
1.28814697266	1508
1.28850507736	1511
1.28924703598	1515
1.29020094872	1518
1.29054808617	1518
1.29136800766	1521
1.29236507416	1526
1.29269313812	1530
1.2937130928	1536
1.29411911964	1542
1.29502892494	1547
1.29568791389	1551
1.29632091522	1554
1.29689908028	1559
1.29762196541	1565
1.29857993126	1567
1.29909491539	1569
1.30008292198	1571
1.30115699768	1574
1.30125713348	1579
1.30186200142	1584
1.30266308784	1585
1.30358791351	1590
1.30385613441	1591
1.30468893051	1594
1.30540013313	1595
1.30636191368	1602
1.30675792694	1603
1.307502985	1604
1.30819511414	1604
1.30893993378	1610
1.30986404419	1616
1.31032204628	1621
1.31102609634	1626
1.31166791916	1630
1.31274008751	1634
1.31290102005	1638
1.31376814842	1643
1.31450009346	1647
1.31523013115	1648
1.31588792801	1648
1.31660795212	1650
1.31757998466	1652
1.31800508499	1653
1.31873106956	1656
1.31942296028	1655
1.32038998604	1659
1.32077503204	1661
1.32152605057	1661
1.32252311707	1664
1.32283496857	1666
1.32393193245	1664
1.32423305511	1663
1.32503294945	1663
1.3260269165	1666
1.32636594772	1667
1.32710409164	1669
1.3281519413	1672
1.32846403122	1673
1.32928991318	1674
1.33030104637	1675
1.33051609993	1677
1.33158707619	1676
1.33197712898	1676
1.33298110962	1674
1.33346009254	1672
1.33420109749	1672
1.33493113518	1675
1.33562302589	1676
1.33658909798	1676
1.33677697182	1677
1.33768200874	1677
1.33842206001	1680
1.33940601349	1683
1.34048008919	1683
1.34059095383	1682
1.34121108055	1684
1.34175992012	1686
1.3428170681	1688
1.34325504303	1691
1.3440721035	1694
1.34483408928	1697
1.34565591812	1697
1.34600305557	1697
1.34681010246	1698
1.34781193733	1700
1.3481400013	1694
1.34898805618	1690
1.34989404678	1686
1.35035800934	1685
1.35131001472	1683
1.35170698166	1681
1.3526930809	1681
1.35294294357	1678
1.35384702682	1679
1.35452413559	1678
1.35526108742	1679
1.35594701767	1680
1.35665297508	1678
1.35735011101	1678
1.35806202888	1677
1.3590400219	1679
1.3601539135	1680
1.3602669239	1683
1.36083698273	1685
1.36193203926	1687
1.36210608482	1687
1.36322212219	1688
1.36357712746	1689
1.36470508575	1689
1.36494612694	1687
1.36603498459	1681
1.36715006828	1679
1.36730909348	1675
1.36789703369	1674
1.36885499954	1671
1.36929011345	1670
1.36990404129	1669
1.37070298195	1670
1.3714261055	1669
1.37241101265	1669
1.37276792526	1671
1.37353110313	1671
1.37444210052	1670
1.37554597855	1672
1.37565803528	1674
1.37652802467	1676
1.3768889904	1678
1.37765097618	1680
1.378469944	1682
1.37909793854	1683
1.37982010841	1682
1.38047909737	1684
1.38111996651	1684
1.38212800026	1679
1.3825070858	1674
1.38333797455	1673
1.38398814201	1671
1.38506507874	1670
1.38534903526	1669
1.38615393639	1669
1.38712906837	1669
1.388215065	1668
1.38832807541	1669
1.38897609711	1669
1.38965892792	1669
1.3904030323	1667
1.39105296135	1664
1.39173412323	1666
1.39245295525	1668
1.39316701889	1669
1.39381408691	1670
1.39457798004	1674
1.39514303207	1674
1.39593696594	1675
1.39697909355	1677
1.39805793762	1677
1.39822912216	1676
1.39875793457	1673
1.39968204498	1670
1.40015006065	1668
1.40093708038	1666
1.40186500549	1666
1.40223813057	1665
1.40326809883	1665
1.40366601944	1666
1.40465712547	1666
1.4048769474	1666
1.40581011772	1667
1.40651106834	1668
1.40738606453	1665
1.40779709816	1665
1.40859794617	1665
1.40944504738	1666
1.41024303436	1669
1.41058111191	1669
1.41166210175	1673
1.41205191612	1673
1.41299200058	1674
1.4134349823	1673
1.41423392296	1673
1.41486907005	1671
1.41560411453	1666
1.41649913788	1663
1.41695713997	1660
1.41766810417	1659
1.41840600967	1657
1.41910409927	1657
1.42003798485	1655
1.42049002647	1655
1.42127609253	1654
1.42221593857	1654
1.4226269722	1654
1.42340397835	1653
1.42398715019	1651
1.42497801781	1652
1.42540192604	1646
1.42646312714	1657
1.42670607567	1658
1.42753195763	1662
1.42833614349	1665
1.42921805382	1667
1.42963910103	1668
1.43040800095	1670
1.43132305145	1671
1.43163514137	1671
1.43238806725	1666
1.43315792084	1664
1.43414092064	1662
1.43447995186	1662
1.43528199196	1661
1.43596792221	1661
1.43671011925	1660
1.43733501434	1659
1.43806314468	1658
1.43876814842	1660
1.43939614296	1660
1.44011592865	1657
1.44089198112	1655
1.44163298607	1656
1.4423160553	1657
1.44300413132	1659
1.44368696213	1660
1.44442200661	1663
1.44543099403	1664
1.44577693939	1666
1.44678497314	1668
1.44702792168	1671
1.44791007042	1672
1.44886612892	1669
1.44921398163	1668
1.45005011559	1666
1.45098900795	1667
1.45131611824	1666
1.45209908485	1667
1.45275998116	1665
1.45353412628	1665
1.45446801186	1664
1.45483803749	1664
1.45562911034	1663
1.45657396317	1661
1.45684504509	1659
1.45771408081	1656
1.4584069252	1655
1.45914292336	1655
1.46020793915	1655
1.46051096916	1655
1.46124792099	1655
1.46222305298	1658
1.46244096756	1657
1.46362400055	1658
1.46399211884	1659
1.46472811699	1660
1.46566295624	1658
1.46604514122	1658
1.4667840004	1656
1.46741604805	1656
1.4683740139	1658
1.46887612343	1659
1.46960306168	1659
1.4705619812	1659
1.47102308273	1660
1.47177910805	1661
1.47275710106	1664
1.47386097908	1664
1.47397494316	1662
1.47459506989	1662
1.47528910637	1662
1.47600603104	1662
1.47662806511	1663
1.47739315033	1666
1.47834300995	1666
1.47869896889	1666
1.47940206528	1667
1.48041605949	1669
1.48078298569	1670
1.48155808449	1670
1.48253798485	1667
1.48294305801	1666
1.48393392563	1667
1.48433995247	1669
1.48498010635	1670
1.48572897911	1672
1.48645401001	1672
1.48711800575	1675
1.48817110062	1675
1.48857903481	1675
1.48933291435	1677
1.4903011322	1676
1.49064397812	1672
1.49143409729	1672
1.49206709862	1672
1.49278593063	1671
1.4935529232	1673
1.49424791336	1673
1.49513506889	1674
1.49553894997	1673
1.49635004997	1674
1.49702692032	1673
1.498016119	1672
1.49835205078	1670
1.49944210052	1666
1.49976396561	1663
1.50081801414	1663
1.50123691559	1663
1.50189614296	1665
1.50261592865	1665
1.50329995155	1665
1.50425505638	1666
1.50470304489	1667
1.50569105148	1668
1.50606393814	1670
1.50721001625	1670
1.50740194321	1669
1.50845694542	1670
1.50890398026	1672
1.50967311859	1674
1.51063895226	1677
1.51100206375	1681
1.51176095009	1683
1.51246809959	1684
1.51340603828	1688
1.51387691498	1690
1.51461696625	1691
1.51529502869	1692
1.51599812508	1690
1.51697397232	1690
1.51804995537	1691
1.51820898056	1692
1.51875305176	1693
1.51950502396	1695
1.52046203613	1693
1.52084112167	1693
1.52158999443	1694
1.52229213715	1697
1.52325105667	1695
1.52366495132	1692
1.52438592911	1691
1.52504706383	1693
1.5260989666	1694
1.52644896507	1695
1.52721500397	1699
1.52811002731	1701
1.52849197388	1702
1.52936911583	1703
1.53029203415	1702
1.53066492081	1702
1.53144192696	1701
1.53214597702	1697
1.53286504745	1694
1.53345894814	1694
1.53421211243	1692
1.53492999077	1691
1.53566002846	1691
1.53636813164	1692
1.53714394569	1692
1.53800296783	1692
1.53838706017	1693
1.53913807869	1695
1.54010105133	1696
1.54116010666	1695
1.54128313065	1694
1.54189610481	1696
1.54269909859	1695
1.54335713387	1696
1.5440659523	1698
1.54475212097	1698
1.54547214508	1699
1.54643893242	1699
1.54681897163	1696
1.54758405685	1694
1.54825091362	1690
1.54927492142	1682
1.55036711693	1677
1.5505490303	1671
1.55104494095	1665
1.55181002617	1661
1.55275511742	1658
1.55306100845	1651
1.55388712883	1649
1.5546169281	1644
1.55545306206	1643
1.55589103699	1641
1.55697011948	1638
1.55727601051	1635
1.55833506584	1634
1.55952692032	1636
1.55967593193	1639
1.56012511253	1640
1.56093096733	1641
1.56154799461	1645
1.56241798401	1646
1.56301307678	1647
1.56368803978	1650
1.56440997124	1652
1.56536602974	1651
1.56572604179	1650
1.56651306152	1650
1.56745696068	1650
1.56789302826	1650
1.56862092018	1649
1.5693731308	1647
1.56999707222	1648
1.57064414024	1646
1.57163405418	1645
1.57211303711	1644
1.57286000252	1643
1.5735449791	1642
1.574229002	1638
1.57493400574	1638
1.57567811012	1640
1.57638192177	1640
1.57703709602	1642
1.57797908783	1643
1.5790719986	1644
1.57918405533	1645
1.58007407188	1644
1.58047699928	1647
1.5812420845	1646
1.58217406273	1643
1.5825381279	1641
1.58356904984	1638
1.58398604393	1636
1.58501410484	1637
1.58538413048	1634
1.58613991737	1637
1.58684802055	1633
1.58790206909	1631
1.58810114861	1630
1.58920192719	1632
1.58961105347	1630
1.59059810638	1628
1.59097313881	1626
1.5919880867	1627
1.59239292145	1628
1.59317994118	1630
1.59387493134	1633
1.59463906288	1634
1.59526109695	1634
1.59600901604	1635
1.59697198868	1635
1.59808897972	1637
1.59820103645	1636
1.59883093834	1632
1.59947395325	1629
1.60041904449	1626
1.6008579731	1624
1.60163807869	1622
1.60257291794	1620
1.60368204117	1619
1.60386610031	1618
1.60465812683	1616
1.6049990654	1617
1.60580706596	1617
1.60675692558	1616
1.6078350544	1612
1.60800814629	1612
1.60860514641	1611
1.60959410667	1611
1.60981893539	1612
1.61070394516	1613
1.61142396927	1613
1.61210894585	1612
1.61287903786	1613
1.61360502243	1613
1.6145401001	1614
1.61492609978	1613
1.61568808556	1610
1.61641812325	1609
1.61706900597	1609
1.61805796623	1610
1.6183860302	1610
1.61920905113	1611
1.61982297897	1612
1.62087011337	1612
1.62128710747	1612
1.62225699425	1614
1.62259697914	1615
1.62341308594	1613
1.62411499023	1611
1.6247780323	1608
1.62578892708	1606
1.62608909607	1606
1.62717700005	1604
1.62740397453	1602
1.62850809097	1600
1.62891602516	1600
1.6299431324	1600
1.6302959919	1601
1.6314740181	1600
1.63260102272	1595
1.63271403313	1587
1.63321495056	1577
1.63419699669	1565
1.63538002968	1549
1.63549113274	1528
1.63602495193	1505
1.63699412346	1478
1.63740301132	1447
1.63813996315	1414
1.63884091377	1383
1.63945603371	1349
1.6405069828	1313
1.64077115059	1279
1.64163613319	1246
1.64267492294	1216
1.64298701286	1186
1.64400410652	1159
1.64440703392	1131
1.64509296417	1104
1.64611196518	1076
1.64650607109	1047
1.64723610878	1016
1.64789104462	990
1.64890003204	966
1.64900112152	943
1.65010809898	923
1.65020895004	908
1.65138506889	896
1.65148591995	886
1.65255904198	879
1.65266013145	875
1.65383005142	874
1.65394711494	875
1.65498495102	881
1.65508508682	891
1.65621805191	907
1.65634298325	927
1.65740704536	949
1.65752696991	974
1.65838313103	1003
1.65922093391	1036
1.65963602066	1068
1.66048908234	1097
1.66138792038	1116
1.66169214249	1130
1.66257214546	1139
1.6632809639	1137
1.66392302513	1133
1.6646270752	1124
1.66544914246	1107
1.665995121	1089
1.66670393944	1073
1.66742014885	1061
1.66813993454	1053
1.66904592514	1047
1.66948008537	1048
1.67023491859	1056
1.67125511169	1071
1.67161512375	1096
1.67242193222	1128
1.67304801941	1170
1.6737370491	1221
1.67445898056	1282
1.67514014244	1353
1.6758480072	1436
1.67688512802	1523
1.67721891403	1618
1.67795705795	1717
1.67864894867	1819
1.67965102196	1921
1.67995095253	2036
1.68074011803	2151
1.68141102791	2264
1.68214392662	2369
1.68309307098	2460
1.6835091114	2541
1.68424201012	2601
1.68497395515	2641
1.68589305878	2657
1.68630313873	2651
1.68733906746	2622
1.68775296211	2575
1.6885099411	2511
1.68942308426	2432
1.68986105919	2344
1.69060707092	2247
1.6915409565	2149
1.69276595116	2053
1.69299912453	1960
1.69332194328	1873
1.69405198097	1793
1.69468712807	1722
1.69574213028	1662
1.69622898102	1613
1.69692611694	1575
1.697701931	1548
1.69840407372	1531
1.69931411743	1522
1.6997179985	1518
1.70047402382	1523
1.70141005516	1533
1.70181894302	1548
1.70256614685	1563
1.70325994492	1577
1.70395898819	1590
1.7049369812	1604
1.7060251236	1614
1.7061829567	1623
1.70704603195	1628
1.70728802681	1632
1.70842504501	1631
1.70954799652	1632
1.70972204208	1632
1.71048498154	1629
1.71084213257	1628
1.71164512634	1624
1.71238207817	1620
1.71337103844	1614
1.71357607841	1610
1.71470308304	1605
1.71510791779	1598
1.71581602097	1590
1.7165760994	1583
1.71726799011	1578
1.71821808815	1573
1.7193570137	1573
1.71954202652	1572
1.72003293037	1570
1.72105002403	1572
1.72139191628	1571
1.72243094444	1573
1.72288107872	1575
1.7238240242	1575
1.7242410183	1574
1.7252831459	1577
1.72551894188	1579
1.72668504715	1581
1.72703313828	1582
1.72804498672	1584
1.72846794128	1585
1.72920513153	1585
1.72989797592	1586
1.73060703278	1584
1.73155093193	1583
1.73194694519	1579
1.73267912865	1573
1.7336499691	1571
1.73475694656	1568
1.73492193222	1566
1.73576593399	1566
1.73622894287	1566
1.73694705963	1564
1.73760604858	1563
1.73836994171	1562
1.73901605606	1561
1.73972201347	1562
1.74040198326	1560
1.74110412598	1559
1.74180912971	1558
1.74255895615	1559
1.74327898026	1560
1.74412202835	1562
1.74458694458	1563
1.74535393715	1565
1.74602913857	1566
1.74677300453	1565
1.74773192406	1565
1.74814200401	1565
1.7488451004	1562
1.74984908104	1558
1.75018191338	1557
1.75120902061	1556
1.75147795677	1554
1.75234508514	1553
1.75293803215	1552
1.75395202637	1551
1.75441908836	1550
1.75516414642	1549
1.75587701797	1550
1.75684809685	1548
1.75792312622	1547
1.75808906555	1545
1.75891208649	1547
1.75931310654	1549
1.76027202606	1550
1.76138901711	1553
1.76151299477	1554
1.7625079155	1555
1.76283502579	1555
1.76361608505	1555
1.76432299614	1556
1.76529407501	1552
1.76566410065	1547
1.7664411068	1544
1.76703596115	1541
1.76813912392	1540
1.7683300972	1536
1.76950192451	1533
1.7699201107	1532
1.77082109451	1529
1.77128911018	1527
1.77217006683	1527
1.77334499359	1526
1.77346491814	1523
1.77408599854	1521
1.77479696274	1520
1.77575802803	1521
1.77619600296	1522
1.77700614929	1524
1.77766513824	1525
1.77840399742	1527
1.77929401398	1528
1.77962207794	1528
1.78042507172	1530
1.78143501282	1530
1.78180503845	1527
1.78251194954	1524
1.78325104713	1521
1.78390908241	1520
1.78467607498	1519
1.78563308716	1519
1.78599405289	1516
1.78678703308	1515
1.78734993935	1513
1.78828907013	1510
1.78945398331	1509
1.78957605362	1508
1.79047107697	1503
1.79080605507	1501
1.79159903526	1498
1.7924079895	1496
1.79336309433	1496
1.79445314407	1497
1.79462313652	1498
1.79516410828	1496
1.7960960865	1496
1.79653310776	1495
1.79733800888	1496
1.79798007011	1495
1.79895710945	1492
1.79933404922	1489
1.8000690937	1486
1.80083012581	1486
1.80150604248	1485
1.80219006538	1486
1.80290102959	1486
1.80360198021	1485
1.80458211899	1485
1.80484700203	1485
1.80599808693	1487
1.80641198158	1486
1.80740904808	1483
1.80776500702	1480
1.80882096291	1479
1.80919194221	1478
1.81018710136	1478
1.8105199337	1477
1.81145000458	1477
1.81210112572	1475
1.81271409988	1472
1.81367301941	1470
1.81407403946	1469
1.81483507156	1466
1.81561303139	1462
1.81622815132	1457
1.8169901371	1454
1.81795692444	1453
1.81832408905	1451
1.81932997704	1449
1.81969594955	1449
1.82045698166	1447
1.82142400742	1446
1.82176804543	1446
1.82284092903	1449
1.82319712639	1447
1.82427310944	1446
1.82528996468	1445
1.82546710968	1448
1.82606506348	1449
1.82672095299	1452
1.82762312889	1453
1.82801795006	1455
1.82904911041	1456
1.82946109772	1456
1.83015012741	1457
1.83086013794	1459
1.83180594444	1455
1.83221101761	1451
1.83296012878	1448
1.83373999596	1446
1.83468604088	1444
1.83509111404	1441
1.83583211899	1439
1.83653712273	1436
1.83733797073	1433
1.83820700645	1430
1.8385989666	1430
1.83961105347	1431
1.84000396729	1428
1.84075903893	1427
1.8418431282	1428
1.84214496613	1427
1.84327411652	1430
1.84346914291	1434
1.84437799454	1436
1.8449780941	1438
1.84566497803	1441
1.84633994102	1442
1.84700298309	1442
1.84770607948	1444
1.84840607643	1442
1.84936213493	1439
1.84983992577	1440
1.85062813759	1439
1.85142493248	1438
1.85206794739	1438
1.85304403305	1438
1.85325098038	1438
1.85411214828	1439
1.85506296158	1438
1.85544300079	1440
1.85620212555	1440
1.85715913773	1437
1.85757112503	1436
1.85832309723	1437
1.85910105705	1438
1.86010098457	1440
1.86028409004	1441
1.86107110977	1444
1.86206102371	1444
1.86246705055	1445
1.86352705956	1446
1.8646531105	1448
1.86476802826	1448
1.8653960228	1444
1.86633014679	1443
1.86676096916	1442
1.86768102646	1444
1.86883592606	1444
1.8689520359	1446
1.86985993385	1449
1.87027406693	1450
1.87093496323	1453
1.87191200256	1457
1.873016119	1460
1.87313914299	1461
1.87374305725	1460
1.87471008301	1461
1.87510800362	1463
1.87613105774	1463
1.87651705742	1464
1.87730503082	1466
1.87789511681	1468
1.87867903709	1468
1.87960791588	1469
1.88072109222	1472
1.88087201118	1472
1.88146400452	1471
1.88243913651	1469
1.88281702995	1467
1.88358592987	1465
1.88433408737	1467
1.88525104523	1468
1.88563108444	1470
1.88638114929	1472
1.88733410835	1474
1.88775992393	1474
1.88855600357	1476
1.88951611519	1478
1.89069700241	1479
1.89080905914	1479
1.8914039135	1479
1.89196395874	1481
1.89293193817	1485
1.89348006248	1488
1.89413809776	1492
1.89480113983	1495
1.89554691315	1499
1.89619898796	1503
1.89693713188	1507
1.89765310287	1510
1.89837098122	1509
1.89944696426	1509
1.89961004257	1509
1.90043306351	1510
1.90118193626	1511
1.90186309814	1514
1.90280604362	1515
1.90317392349	1517
1.90417194366	1518
1.90462994576	1520
1.90563106537	1524
1.90600895882	1527
1.90679097176	1528
1.90750408173	1529
1.90834212303	1534
1.90955495834	1539
1.90968513489	1545
1.91038894653	1551
1.91102099419	1557
1.91192793846	1563
1.91236209869	1569
1.91307401657	1572
1.91382002831	1578
1.91480493546	1581
1.91514611244	1582
1.91620111465	1582
1.91654706001	1584
1.91741204262	1585
1.91806411743	1588
1.91874098778	1591
1.91972303391	1593
1.92009806633	1597
1.92109513283	1598
1.92148995399	1602
1.92222499847	1607
1.92292904854	1609
1.92362999916	1610
1.92457699776	1613
1.92484307289	1615
1.92578792572	1618
1.92677593231	1623
1.92709803581	1629
1.92787194252	1635
1.92857408524	1639
1.92929410934	1643
1.92998695374	1648
1.93066000938	1654
1.93142008781	1659
1.93209314346	1659
1.93302512169	1659
1.93339896202	1659
1.93439507484	1663
1.93480610847	1665
1.93563294411	1666
1.93623805046	1667
1.93722295761	1667
1.93759512901	1668
1.93843007088	1668
1.93942093849	1671
1.93963694572	1671
1.94044113159	1671
1.94139313698	1669
1.94178009033	1670
1.94284701347	1672
1.94315314293	1676
1.94396710396	1680
1.94472908974	1681
1.94540500641	1685
1.94613695145	1687
1.94706296921	1689
1.94743108749	1692
1.9482190609	1691
1.94892811775	1691
1.94988298416	1689
1.95015907288	1689
1.9513220787	1691
1.95157599449	1691
1.95244002342	1691
1.95342302322	1691
1.9536819458	1691
1.95447707176	1691
1.95551896095	1690
1.95660305023	1691
1.95675706863	1689
1.95741701126	1687
1.95806503296	1683
1.95875906944	1686
1.95971798897	1685
1.95994997025	1686
1.9608130455	1688
1.96177601814	1688
1.9621629715	1689
1.96288394928	1690
1.96389913559	1691
1.96427798271	1691
1.9650220871	1690
1.9660320282	1687
1.96713113785	1686
1.96730494499	1685
1.96787714958	1688
1.96898603439	1687
1.9691259861	1690
1.9699909687	1688
1.97094702721	1689
1.97137308121	1690
1.97209811211	1689
1.9728140831	1691
1.973747015	1691
1.9741461277	1689
1.97486996651	1690
1.97552800179	1691
1.97634410858	1695
1.97727894783	1697
1.97766709328	1700
1.9784181118	1700
1.97911095619	1702
1.97979307175	1701
1.98077201843	1702
1.98111701012	1701
1.98190903664	1696
1.98254394531	1692
1.98330807686	1690
1.98402404785	1687
1.98490715027	1687
1.98536992073	1686
1.9864180088	1685
1.98668003082	1685
1.98755812645	1684
1.98823094368	1683
1.98906302452	1685
1.98959898949	1685
1.99059200287	1684
1.99170398712	1681
1.99185395241	1681
1.99244403839	1683
1.99306297302	1685
1.99405694008	1687
1.9944961071	1690
1.99519705772	1690
1.99612903595	1692
1.99737596512	1692
1.99754905701	1696
1.99801301956	1695
1.99874711037	1688
1.99944806099	1690
2.00018310547	1689
2.00090312958	1688
2.00181913376	1687
2.00218296051	1686
2.00325107574	1683
2.00349903107	1682
2.00441503525	1682
2.00533795357	1679
2.00568509102	1680
2.00649094582	1679
2.00717902184	1675
2.00809907913	1671
2.00925397873	1672
2.00943398476	1671
2.01002001762	1671
2.0106959343	1672
2.01141405106	1674
2.01239204407	1674
2.01346611977	1676
2.01362299919	1677
2.0142159462	1677
2.0149140358	1678
2.01556301117	1676
2.01646304131	1673
2.01687598228	1673
2.01762199402	1673
2.01832795143	1673
2.01905202866	1674
2.01999402046	1674
2.02038311958	1674
2.02140593529	1674
2.0218000412	1674
2.02256393433	1676
2.02326607704	1674
2.02397012711	1674
2.02466797829	1672
2.02537202835	1673
2.0260591507	1674
2.0267739296	1678
2.02771997452	1680
2.02809095383	1681
2.0288579464	1682
2.02983593941	1682
2.03095412254	1682
2.03108501434	1682
2.03170013428	1680
2.03268694878	1676
2.03302001953	1673
2.03381109238	1671
2.03444314003	1670
2.03512096405	1672
2.03582596779	1673
2.03652310371	1668
2.03750109673	1667
2.03786706924	1667
2.03861308098	1668
2.03930902481	1669
2.04029607773	1666
2.04140806198	1665
2.04151201248	1666
2.04224395752	1668
2.04292106628	1670
2.0438709259	1674
2.04428792	1676
2.04500508308	1679
2.04572105408	1680
2.04642295837	1680
2.04712200165	1681
2.04807114601	1683
2.04918503761	1681
2.04928612709	1678
2.04992508888	1675
2.05060791969	1675
2.05131411552	1673
2.05235695839	1672
2.05342006683	1671
2.05352091789	1670
2.05405902863	1669
2.05475902557	1669
2.05545806885	1669
2.05645394325	1669
2.05760192871	1667
2.05770301819	1666
2.0583050251	1667
2.05898094177	1666
2.05993795395	1668
2.06032299995	1672
2.06110501289	1672
2.06179714203	1673
2.06248497963	1674
2.06326007843	1676
2.06396198273	1676
2.06466603279	1677
2.06562709808	1673
2.06602191925	1671
2.06677007675	1670
2.0677189827	1668
2.06814312935	1667
2.06891608238	1667
2.06984496117	1667
2.07096004486	1667
2.07107901573	1666
2.07169604301	1669
2.07239103317	1668
2.07309103012	1668
2.07404208183	1666
2.07445311546	1666
2.07542204857	1668
2.07583808899	1668
2.07659101486	1669
2.07750797272	1671
2.07802414894	1671
2.07880997658	1667
2.07967495918	1670
2.08007311821	1672
2.08083105087	1671
2.0815179348	1669
2.08221101761	1667
2.08292293549	1664
2.08361697197	1665
2.08434009552	1663
2.0850250721	1664
2.08597612381	1665
2.08637499809	1666
2.08716106415	1666
2.08784413338	1666
2.0888299942	1668
2.08998203278	1670
2.09010195732	1670
2.09061908722	1669
2.09135007858	1671
2.09238195419	1673
2.09265804291	1674
2.09359097481	1677
2.0942299366	1679
2.09518814087	1682
2.09543204308	1683
2.09656596184	1684
2.09682106972	1685
2.09797596931	1687
2.09832596779	1686
2.0990960598	1683
2.09980893135	1680
2.10051107407	1677
2.10120296478	1676
2.1019089222	1677
2.10260891914	1676
2.10338592529	1678
2.10401105881	1678
2.10499215126	1676
2.10531711578	1678
2.10613512993	1680
2.1070959568	1676
2.10819411278	1675
2.10831713676	1674
2.10897397995	1674
2.10970807076	1678
2.1103990078	1678
2.11111903191	1681
2.11197805405	1683
2.1123790741	1685
2.11320710182	1686
2.11384105682	1688
2.11454510689	1688
2.11525297165	1686
2.11596393585	1683
2.11695313454	1683
2.11800813675	1682
2.11811995506	1682
2.11871409416	1681
2.11967611313	1684
2.12010002136	1682
2.12092709541	1683
2.1218791008	1684
2.12219595909	1685
2.12326002121	1690
2.12360811234	1690
2.12442708015	1690
2.12545108795	1693
2.12561202049	1696
2.12657904625	1701
2.12717914581	1706
2.12818408012	1709
2.12853598595	1710
2.12931799889	1715
2.13023400307	1717
2.13062691689	1719
2.13161611557	1720
2.13203310966	1717
2.13276410103	1714
2.13374304771	1715
2.13413405418	1713
2.13488507271	1714
2.13558602333	1712
2.13653802872	1710
2.13685393333	1710
2.13768696785	1709
2.13869595528	1710
2.13905191422	1712
2.14011907578	1709
2.14047908783	1707
2.14126396179	1703
2.14222812653	1704
2.14253306389	1704
2.14362192154	1704
2.14394307137	1706
2.14472913742	1707
2.14544010162	1707
2.14639306068	1708
2.14748597145	1709
2.14766407013	1708
2.1481730938	1708
2.14905309677	1704
2.14957904816	1700
2.15045404434	1699
2.15136408806	1697
2.15177106857	1695
2.15248394012	1693
2.15315294266	1692
2.15424609184	1690
2.15458893776	1689
2.15529704094	1689
2.15624594688	1688
2.15664601326	1685
2.15737009048	1682
2.15808391571	1680
2.15906095505	1680
2.15934109688	1679
2.16022896767	1680
2.16092991829	1678
2.16187906265	1677
2.16228508949	1675
2.16300797462	1673
2.16373801231	1671
2.16463112831	1669
2.16573596001	1664
2.16585993767	1658
2.16679906845	1657
2.16789913177	1653
2.16802096367	1652
2.16857910156	1651
2.16939091682	1652
2.17007803917	1650
2.17097997665	1648
2.17210102081	1649
2.1722240448	1648
2.17286705971	1649
2.1735470295	1646
2.17448711395	1645
2.17488408089	1644
2.17563414574	1647
2.1763241291	1648
2.17705011368	1650
2.17774200439	1653
2.17844414711	1655
2.17915606499	1657
2.1798350811	1657
2.18052196503	1659
2.18122792244	1659
2.18219709396	1657
2.18257403374	1654
2.18358111382	1652
2.18399691582	1652
2.1847319603	1651
2.18569207191	1652
2.18607592583	1651
2.18683195114	1651
2.18753099442	1651
2.18848395348	1652
2.18891096115	1653
2.18962907791	1655
2.19036197662	1654
2.19102501869	1653
2.19180893898	1654
2.19285106659	1657
2.19300103188	1659
2.19391608238	1658
2.19460892677	1660
2.19531702995	1660
2.19606304169	1658
2.19698500633	1659
2.19736003876	1658
2.19814395905	1656
2.19888210297	1651
2.19948291779	1647
2.20049309731	1645
2.20087003708	1645
2.20159506798	1642
2.20233893394	1641
2.20333194733	1641
2.2036960125	1641
2.20436096191	1640
2.20508098602	1641
2.20582413673	1642
2.20652198792	1642
2.20723509789	1640
2.207914114	1638
2.20863604546	1639
2.20942091942	1639
2.21026706696	1641
2.21066999435	1642
2.21167707443	1641
2.21203303337	1639
2.21305394173	1638
2.21341705322	1637
2.21413493156	1635
2.21491909027	1633
2.21558403969	1629
2.21651506424	1624
2.21703791618	1621
2.21805500984	1620
2.21839094162	1617
2.21920514107	1617
2.2199139595	1616
2.22092604637	1616
2.22196412086	1615
2.22209095955	1616
2.22270607948	1619
2.22340893745	1617
2.22433614731	1616
2.22473812103	1616
2.22558903694	1618
2.22618794441	1620
2.22714304924	1623
2.22750401497	1628
2.22854804993	1628
2.22877693176	1629
2.22970795631	1632
2.23064899445	1632
2.23103499413	1632
2.23179602623	1629
2.23248314857	1625
2.23344397545	1622
2.23384594917	1619
2.23458600044	1615
2.2353041172	1610
2.23586392403	1607
2.23699307442	1602
2.23811793327	1595
2.23824214935	1589
2.23886108398	1585
2.23949599266	1581
2.24045109749	1576
2.24159908295	1572
2.24171209335	1571
2.24231791496	1568
2.24303007126	1569
2.24371910095	1563
2.24439501762	1555
2.24510502815	1544
2.24614810944	1526
2.24653196335	1506
2.2472820282	1482
2.24824309349	1454
2.24860906601	1420
2.24961996078	1384
2.2507519722	1349
2.25098204613	1314
2.25148797035	1278
2.25209593773	1245
2.25292205811	1210
2.25382614136	1176
2.25424408913	1142
2.25498509407	1109
2.25570297241	1077
2.25646805763	1044
2.25710391998	1007
2.25947093964	975
2.25971794128	951
2.25993394852	929
2.26014614105	912
2.26050305367	896
2.26069808006	884
2.26176095009	878
2.26187896729	873
2.2629430294	870
2.2630610466	872
2.26413202286	874
2.26424813271	883
2.26535391808	890
2.26549005508	902
2.26665711403	918
2.26683712006	941
2.26784706116	968
2.26802301407	998
2.26908302307	1030
2.26937103271	1063
2.27021813393	1096
2.27111411095	1123
2.27144503593	1146
2.27222800255	1161
2.27317500114	1168
2.27431201935	1166
2.27443599701	1158
2.27524495125	1150
2.27569293976	1140
2.27642607689	1129
2.27742815018	1121
2.27774214745	1114
2.27860498428	1109
2.27933096886	1106
2.28027391434	1111
2.28063106537	1122
2.28146409988	1137
2.2821290493	1160
2.28283500671	1189
2.28377008438	1227
2.28414011002	1270
2.28491806984	1325
2.28577303886	1386
2.28621697426	1454
2.28719806671	1531
2.2875919342	1614
2.28845405579	1702
2.28907299042	1794
2.29010605812	1885
2.2904689312	1980
2.29117298126	2084
2.29185199738	2186
2.29282307625	2288
2.29328799248	2383
2.29407596588	2466
2.29499602318	2532
2.29535198212	2579
2.29639792442	2605
2.29667210579	2608
2.29746794701	2593
2.29849791527	2554
2.29883813858	2496
2.29961013794	2426
2.30057001114	2347
2.30085706711	2257
2.30199599266	2167
2.3022749424	2073
2.30303907394	1979
2.30400800705	1893
2.30448913574	1809
2.3052880764	1738
2.30592608452	1674
2.30664205551	1618
2.30747008324	1572
2.30804800987	1539
2.30903410912	1518
2.30936908722	1505
2.31037807465	1495
2.31153297424	1503
2.3116569519	1509
2.31249594688	1518
2.31278514862	1530
2.31366801262	1545
2.31440591812	1558
2.3153629303	1568
2.31567692757	1577
2.31668806076	1585
2.31707191467	1593
2.31789803505	1601
2.31889104843	1609
2.3192179203	1613
2.32005000114	1617
2.32098603249	1616
2.32141709328	1615
2.32203698158	1614
2.3228430748	1612
2.32353997231	1605
2.32422709465	1600
2.32512593269	1595
2.32550501823	1589
2.32642102242	1588
2.32700395584	1586
2.32797312737	1584
2.32826709747	1582
2.32912397385	1581
2.32987093925	1579
2.33081412315	1579
2.33108592033	1579
2.33195614815	1576
2.33294296265	1572
2.33399605751	1571
2.33412098885	1571
2.33468604088	1570
2.3354279995	1570
2.33609104156	1571
2.33677411079	1571
2.33753013611	1571
2.33849692345	1572
2.33886504173	1573
2.33964395523	1574
2.34033608437	1573
2.34096598625	1572
2.34206008911	1569
2.34232401848	1571
2.34321808815	1571
2.34413599968	1572
2.34453511238	1573
2.34554195404	1572
2.34593200684	1571
2.34671092033	1570
2.34746098518	1571
2.34833097458	1568
2.34870195389	1564
2.34975600243	1560
2.35009908676	1557
2.35091209412	1555
2.35154509544	1553
2.3523170948	1552
2.35320305824	1551
2.35356712341	1550
2.35435700417	1549
2.35501909256	1549
2.35578298569	1549
2.35673499107	1547
2.35710906982	1545
2.35788393021	1543
2.35882997513	1543
2.35993504524	1545
2.36005711555	1545
2.36096096039	1547
2.36140298843	1548
2.3623650074	1550
2.36274814606	1551
2.36344099045	1552
2.36444211006	1555
2.36486196518	1553
2.36557912827	1551
2.36621403694	1548
2.3672349453	1547
2.3675839901	1547
2.36834812164	1547
2.36908698082	1547
2.36983394623	1546
2.37058210373	1544
2.37148404121	1544
2.37186002731	1543
2.37263011932	1543
2.3735499382	1542
2.3739490509	1537
2.37470507622	1536
2.37539196014	1537
2.37609791756	1537
2.37684297562	1537
2.3777680397	1538
2.37817597389	1539
2.37916493416	1538
2.38034796715	1538
2.38047003746	1538
2.38098406792	1537
2.38199591637	1533
2.38238191605	1528
2.38313698769	1525
2.3838019371	1522
2.38446712494	1520
2.38522195816	1519
2.38620400429	1518
2.38661599159	1512
2.38758993149	1516
2.38804197311	1517
2.38895797729	1517
2.38944792747	1517
2.39020299911	1516
2.39115715027	1514
2.39142608643	1515
2.39225292206	1515
2.39302802086	1516
2.3936650753	1517
2.39441394806	1519
2.39504909515	1519
2.39579391479	1518
2.39674210548	1518
2.39710211754	1519
2.39790201187	1518
2.39861607552	1514
2.39951109886	1511
2.39992403984	1509
2.40075707436	1508
2.40141892433	1508
2.40205693245	1507
2.40308094025	1506
2.4034819603	1505
2.40420794487	1504
2.404941082	1503
2.40583395958	1503
2.40618109703	1503
2.40728211403	1499
2.40765213966	1498
2.4083480835	1497
2.40945601463	1496
2.409760952	1497
2.41056108475	1496
2.4112701416	1497
2.4122209549	1496
2.41339612007	1495
2.41350793839	1494
2.41405701637	1493
2.41476893425	1491
2.41566705704	1486
2.41606497765	1481
2.41685795784	1480
2.41758394241	1476
2.41828203201	1474
2.41916513443	1473
2.41953206062	1471
2.42039394379	1469
2.42100310326	1467
2.42198014259	1466
2.42245697975	1466
2.42313599586	1465
2.42377901077	1462
2.4248149395	1462
2.42522597313	1459
2.42599105835	1461
2.4269361496	1461
2.42738413811	1463
2.42805099487	1461
2.42901802063	1461
2.4293820858	1461
2.43045091629	1461
2.43083405495	1461
2.4314930439	1457
2.43228507042	1451
2.43304109573	1447
2.43374705315	1446
2.43448495865	1443
2.43511295319	1442
2.4358279705	1441
2.43651413918	1440
2.43718910217	1439
2.43789410591	1437
2.4390540123	1439
2.43916106224	1438
2.43993711472	1437
2.44067692757	1435
2.44137811661	1434
2.44245696068	1435
2.44343304634	1437
2.44354104996	1439
2.4440600872	1440
2.44516396523	1440
2.44632291794	1441
2.44644808769	1441
2.44711709023	1442
2.44805598259	1443
2.44841599464	1439
2.44911599159	1435
2.44990205765	1431
2.45058298111	1429
2.45154500008	1428
2.4519610405	1428
2.45269799232	1425
2.45360994339	1426
2.45472097397	1424
2.45484805107	1424
2.455753088	1425
2.45612502098	1427
2.45715308189	1425
2.45742607117	1423
2.45836591721	1423
2.45897507668	1426
2.45969200134	1428
2.46063494682	1431
2.46092605591	1435
2.46176695824	1437
2.46260905266	1438
2.46319198608	1441
2.46412992477	1444
2.4644651413	1445
2.46528697014	1444
2.46623492241	1443
2.46663212776	1442
2.4674179554	1441
2.46808505058	1445
2.46883296967	1446
2.46950006485	1447
2.47020411491	1447
2.47091603279	1449
2.47156500816	1449
2.47225594521	1450
2.47300195694	1451
2.47360301018	1447
2.47438406944	1446
2.47518491745	1447
2.47583603859	1447
2.47685003281	1449
2.4771771431	1451
2.47788906097	1453
2.47885394096	1454
2.47919201851	1456
2.47997903824	1456
2.48102092743	1461
2.48137712479	1461
2.48245596886	1458
2.48280405998	1457
2.48354911804	1457
2.48419809341	1458
2.48499703407	1460
2.48568701744	1460
2.48642206192	1462
2.48713803291	1463
2.48801898956	1463
2.48840212822	1464
2.4894220829	1466
2.4897339344	1467
2.4907989502	1466
2.49112510681	1466
2.49195194244	1469
2.49262309074	1472
2.49349308014	1475
2.49402093887	1478
2.49474406242	1480
2.49569201469	1482
2.49610710144	1484
2.49687600136	1484
2.49753808975	1486
2.49822902679	1485
2.49919891357	1484
2.49959611893	1482
2.50039410591	1482
2.50136804581	1482
2.50172615051	1482
2.50271892548	1483
2.50310897827	1485
2.50386810303	1487
2.50456309319	1488
2.50552010536	1492
2.50591301918	1492
2.50666713715	1494
2.50741314888	1496
2.50832796097	1499
2.50868701935	1503
2.50948810577	1508
2.51017212868	1514
2.51086592674	1521
2.51160597801	1525
2.51222896576	1529
2.51324510574	1533
2.51365208626	1538
2.51439905167	1542
2.51539707184	1541
2.51571011543	1539
2.51673793793	1540
2.51713109016	1542
2.51785993576	1543
2.51858997345	1544
2.51929998398	1547
2.51997995377	1549
2.52062106133	1550
2.52139091492	1553
2.52221894264	1555
2.52285909653	1558
2.52357792854	1559
2.52451205254	1560
2.52482414246	1562
2.52594900131	1567
2.52633404732	1572
2.52699303627	1576
2.52771806717	1581
2.528414011	1586
2.52908802032	1589
2.53008198738	1593
2.5311999321	1598
2.53138208389	1603
2.53193807602	1604
2.53263902664	1606
2.53355312347	1607
2.53398299217	1608
2.53473997116	1610
2.5354449749	1614
2.53608608246	1616
2.53686499596	1617
2.5376470089	1617
2.53828692436	1620
2.53899598122	1623
2.53975105286	1624
2.54040694237	1625
2.54145407677	1625
2.54164409637	1628
2.54273509979	1631
2.54315495491	1635
2.54388403893	1641
2.54462504387	1644
2.54557609558	1648
2.54599809647	1651
2.54673099518	1654
2.54774904251	1658
2.54805994034	1659
2.54905605316	1657
2.54947304726	1657
2.55020308495	1657
2.55091500282	1659
2.55186200142	1658
2.55226206779	1660
2.55322909355	1661
2.55369496346	1659
2.55443310738	1662
2.55512309074	1662
2.55579900742	1663
2.55651211739	1665
2.5571949482	1661
2.55793905258	1662
2.55859303474	1665
2.55963110924	1667
2.55993008614	1669
2.56070113182	1674
2.56168699265	1675
2.56207799911	1675
2.56279706955	1676
2.56349205971	1679
2.56422495842	1681
2.5649459362	1679
2.56584501266	1677
2.56634902954	1676
2.56704998016	1675
2.56768798828	1675
2.56841111183	1675
2.56938910484	1674
2.56977891922	1675
2.57055807114	1675
2.57129597664	1675
2.57200193405	1676
2.57270097733	1677
2.57344794273	1677
2.57437491417	1675
2.57470703125	1675
2.57550191879	1676
2.57621598244	1679
2.57713007927	1680
2.57748413086	1682
2.57825112343	1683
2.57896995544	1685
2.57992100716	1684
2.58036613464	1686
2.58132004738	1686
2.58170700073	1682
2.5824649334	1679
2.58347201347	1677
2.58379292488	1674
2.58466100693	1672
2.58528614044	1672
2.58593511581	1669
2.58658194542	1669
2.58754897118	1667
2.58800911903	1665
2.58899903297	1668
2.58948206902	1668
2.59018111229	1665
2.59086894989	1663
2.59157800674	1664
2.59252095222	1667
2.59286403656	1669
2.59365105629	1673
2.59452795982	1676
2.59498000145	1680
2.5959789753	1679
2.59635400772	1681
2.59724497795	1681
2.59791207314	1683
2.5986700058	1678
2.59954714775	1677
2.59993314743	1673
2.60074114799	1673
2.60142993927	1671
2.60216212273	1669
2.60309696198	1668
2.603495121	1666
2.60425591469	1665
2.6052210331	1665
2.60642814636	1664
2.6065530777	1664
2.6073589325	1661
2.60763311386	1657
2.60840511322	1659
2.60946202278	1660
2.61055397987	1661
2.61068201065	1664
2.61149406433	1665
2.61195898056	1666
2.6127140522	1669
2.61366009712	1670
2.61470293999	1672
2.61491012573	1673
2.615473032	1671
2.61636710167	1675
2.6168410778	1668
2.61762309074	1667
2.61860704422	1668
2.61969304085	1668
2.61981892586	1670
2.62067103386	1668
2.62088894844	1668
2.62183499336	1668
2.62278699875	1670
2.62315201759	1668
2.623939991	1665
2.62470293045	1663
2.62556004524	1665
2.62593913078	1663
2.62671804428	1663
2.62741208076	1664
2.62841296196	1665
2.62947010994	1664
2.6296069622	1664
2.63021206856	1663
2.63091802597	1662
2.63186311722	1660
2.63228702545	1656
2.63301992416	1654
2.63376307487	1652
2.63473200798	1654
2.63509011269	1654
2.6361219883	1652
2.63648891449	1654
2.63752102852	1653
2.63787102699	1654
2.63868904114	1655
2.63938498497	1655
2.64008593559	1654
2.64078807831	1652
2.6415169239	1652
2.64217305183	1652
2.64291501045	1653
2.64361691475	1657
2.64453005791	1659
2.64485406876	1659
2.64570903778	1661
2.64657402039	1660
2.64697098732	1660
2.64772391319	1661
2.64842009544	1660
2.64910411835	1656
2.64983797073	1655
2.65088295937	1655
2.65121603012	1653
2.6520280838	1653
2.6529250145	1654
2.65340805054	1653
2.65437912941	1654
2.65472602844	1653
2.65553498268	1654
2.65623307228	1655
2.6570930481	1654
2.65822196007	1652
2.65839409828	1651
2.65923094749	1652
2.65953993797	1653
2.66044402122	1653
2.66147208214	1655
2.66165113449	1655
2.66281700134	1655
2.66383600235	1655
2.66397094727	1654
2.6645720005	1654
2.66528296471	1650
2.66600513458	1648
2.66701793671	1646
2.66735601425	1645
2.66846895218	1647
2.66876912117	1648
2.66983413696	1646
2.67016291618	1647
2.67124414444	1648
2.67159700394	1649
2.67237997055	1651
2.67306494713	1653
2.67377901077	1652
2.67448711395	1651
2.6751909256	1652
2.67611813545	1654
2.67654013634	1655
2.67734909058	1657
2.67802095413	1659
2.67867803574	1660
2.67957901955	1660
2.68007898331	1660
2.680727005	1660
2.68175697327	1657
2.68212008476	1655
2.68318009377	1650
2.68347597122	1647
2.68427300453	1646
2.68499994278	1644
2.68597412109	1644
2.68708109856	1645
2.68720698357	1644
2.68781113625	1644
2.68872904778	1644
2.68983602524	1646
2.69001507759	1646
2.69060897827	1645
2.69155597687	1646
2.69182014465	1646
2.69258499146	1649
2.69360899925	1651
2.69401907921	1654
2.69475913048	1655
2.69535803795	1656
2.69607114792	1658
2.6969640255	1659
2.69750595093	1660
2.69855499268	1661
2.69893503189	1658
2.6996691227	1656
2.70068407059	1655
2.70101714134	1655
2.7018289566	1655
2.70252513885	1655
2.7032289505	1657
2.70418000221	1656
2.70527291298	1657
2.70539999008	1659
2.70622491837	1659
2.70745110512	1658
2.70757508278	1655
2.70817708969	1654
2.70913100243	1656
2.7095451355	1657
2.71054005623	1660
2.71087098122	1661
2.71192312241	1662
2.71242499352	1665
2.71311497688	1667
2.71405506134	1669
2.71438193321	1671
2.71522212029	1668
2.71582603455	1666
2.71651101112	1665
2.71717596054	1665
2.71794199944	1666
2.71892905235	1666
2.71944713593	1666
2.72008013725	1666
2.72077798843	1666
2.72170901299	1664
2.72209692001	1666
2.72312498093	1665
2.72418212891	1662
2.72435808182	1660
2.72486495972	1659
2.72574901581	1660
2.72651410103	1660
2.72717213631	1662
2.72808694839	1662
2.72834396362	1658
2.72905707359	1664
2.73015904427	1663
2.73056507111	1666
2.73129200935	1665
2.73226308823	1662
2.73266601562	1660
2.73342394829	1658
2.73407292366	1658
2.73478293419	1658
2.73548007011	1659
2.73621511459	1659
2.73698496819	1661
2.73770308495	1663
2.73832702637	1665
2.73908615112	1668
2.74003791809	1670
2.74103403091	1672
2.74121212959	1676
2.74185299873	1677
2.74258708954	1683
2.74332404137	1688
2.74393105507	1692
2.74493002892	1697
2.74532604218	1699
2.74629712105	1703
2.74668693542	1704
2.74744701385	1707
2.74814510345	1706
2.74888205528	1705
2.74977612495	1702
2.75018191338	1698
2.75115203857	1696
2.75238013268	1693
2.75255393982	1691
2.75301098824	1688
2.75375294685	1686
2.75442504883	1684
2.75522494316	1682
2.75592899323	1681
2.75662899017	1678
2.75757098198	1675
2.75796604156	1676
2.7587249279	1675
2.7595000267	1675
2.76039099693	1676
2.76074910164	1679
2.76153302193	1680
2.76224112511	1682
2.7629070282	1683
2.76388502121	1686
2.76427102089	1688
2.7653169632	1689
2.76557397842	1689
2.76666903496	1687
2.76703095436	1688
2.76804900169	1689
2.76914405823	1691
2.76932406425	1689
2.7701830864	1689
2.77060198784	1689
2.77137303352	1689
2.77207612991	1689
2.7730410099	1690
2.77406597137	1687
2.77425003052	1683
2.77504014969	1681
2.77548503876	1677
2.77652096748	1677
2.77684402466	1675
2.77756810188	1672
2.77833509445	1668
2.77904105186	1664
2.77995800972	1659
2.78038692474	1655
2.78114509583	1653
2.78182911873	1646
2.78256011009	1641
2.78324508667	1636
2.78392910957	1635
2.78466105461	1634
2.7856631279	1635
2.78675794601	1635
2.78688311577	1636
2.78768897057	1637
2.78808712959	1638
2.78910303116	1639
2.79039812088	1642
2.79053092003	1641
2.7909719944	1639
2.79168701172	1640
2.79244112968	1639
2.7930829525	1641
2.79378604889	1644
2.7944829464	1645
2.79543304443	1646
2.79654192924	1647
2.79667711258	1647
2.79726791382	1647
2.79798293114	1646
2.79891109467	1642
2.79998898506	1639
2.80012607574	1636
2.80083298683	1635
2.80151510239	1633
2.80216598511	1635
2.80290913582	1634
2.80360412598	1634
2.80429792404	1634
2.80504012108	1634
2.80595707893	1636
2.80640506744	1636
2.8072040081	1634
2.80774903297	1632
2.80887293816	1633
2.80901098251	1634
2.80997014046	1635
2.81063508987	1637
2.81132698059	1639
2.81228709221	1640
2.8126950264	1641
2.81343102455	1641
2.81443214417	1641
2.81549310684	1640
2.81561613083	1635
2.81648492813	1633
2.81690311432	1631
2.81761598587	1628
2.81836509705	1626
2.81904602051	1624
2.81975197792	1622
2.82050609589	1620
2.82115197182	1621
2.821860075	1617
2.82260513306	1619
2.8232960701	1618
2.82400512695	1616
2.82497191429	1616
2.82544612885	1615
2.82611894608	1617
2.82706212997	1618
2.82743906975	1619
2.82820296288	1621
2.82894706726	1621
2.82962203026	1622
2.83031392097	1624
2.83098006248	1625
2.83173203468	1623
2.83246397972	1620
2.83306598663	1618
2.83406496048	1618
2.83444309235	1615
2.83523201942	1614
2.8362030983	1614
2.83741903305	1611
2.83754396439	1611
2.83801913261	1610
2.83872795105	1608
2.83968710899	1607
2.84008312225	1603
2.84082794189	1601
2.84177112579	1599
2.84216594696	1599
2.84317111969	1602
2.8434920311	1603
2.84429907799	1604
2.84503602982	1607
2.8457159996	1606
2.84644293785	1607
2.84713292122	1608
2.84781908989	1610
2.84850406647	1609
2.84925603867	1608
2.85017204285	1606
2.85051393509	1605
2.85157012939	1605
2.85191392899	1603
2.85296607018	1600
2.85335898399	1596
2.85410308838	1593
2.85485601425	1589
2.85559105873	1586
2.85648798943	1583
2.85683107376	1580
2.85782408714	1577
2.85831403732	1577
2.85900092125	1576
2.8599550724	1576
2.86035609245	1573
2.86108613014	1566
2.86209011078	1556
2.8624920845	1540
2.86326813698	1520
2.86389493942	1497
2.86459493637	1468
2.86541414261	1431
2.8663020134	1397
2.86665296555	1362
2.86746406555	1326
2.86815404892	1290
2.8691380024	1255
2.86951899529	1219
2.87052607536	1184
2.8709089756	1149
2.87170791626	1114
2.87246394157	1081
2.87297511101	1044
2.87405896187	1007
2.8743929863	972
2.87539196014	944
2.87549209595	920
2.87661910057	899
2.87671995163	879
2.87787795067	865
2.87797808647	853
2.87917613983	845
2.87927699089	842
2.88037896156	838
2.88047909737	842
2.88157296181	846
2.88167309761	853
2.88244509697	863
2.88345003128	875
2.88355207443	901
2.88462209702	929
2.88472294807	960
2.88582611084	988
2.8859269619	1019
2.88731002808	1054
2.88814401627	1083
2.88825702667	1106
2.88910698891	1126
2.88952803612	1135
2.8905479908	1135
2.89091992378	1130
2.89166808128	1123
2.89258599281	1112
2.89297795296	1101
2.89378809929	1093
2.89449501038	1084
2.89544200897	1078
2.895870924	1076
2.89659810066	1078
2.89757609367	1090
2.89796209335	1107
2.89871811867	1131
2.89942908287	1161
2.90041995049	1198
2.90069198608	1246
2.90182304382	1300
2.90214896202	1363
2.90296006203	1433
2.90364813805	1511
2.90461707115	1595
2.90485095978	1682
2.90576195717	1774
2.90672802925	1864
2.90712594986	1955
2.90812110901	2052
2.90853095055	2152
2.9092669487	2253
2.90995907784	2350
2.91088914871	2433
2.91201114655	2505
2.91213703156	2556
2.91273999214	2588
2.91344714165	2601
2.91413402557	2591
2.91509509087	2560
2.91550803185	2510
2.91626000404	2444
2.91699004173	2370
2.91763210297	2283
2.91862106323	2195
2.9190120697	2102
2.91975903511	2010
2.92046308517	1921
2.92110395432	1838
2.9219019413	1763
2.92260313034	1699
2.92332601547	1642
2.92400097847	1593
2.92470693588	1556
2.9254450798	1531
2.92610001564	1516
2.92681312561	1510
2.92748808861	1508
2.92844700813	1513
2.92888307571	1520
2.92985010147	1530
2.93024301529	1542
2.93124914169	1552
2.93166708946	1564
2.93242001534	1569
2.93307805061	1577
2.9340031147	1584
2.93444395065	1591
2.93521094322	1596
2.9361679554	1600
2.93658399582	1601
2.93731212616	1602
2.93806195259	1601
2.93900513649	1602
2.93937110901	1600
2.94014906883	1595
2.94104909897	1589
2.94152712822	1586
2.942497015	1584
2.94364714622	1582
2.94375896454	1580
2.94445896149	1579
2.94533109665	1578
2.94569897652	1575
2.94672393799	1575
2.94712996483	1574
2.94785809517	1580
2.94885993004	1571
2.94920396805	1567
2.94995212555	1564
2.95060801506	1563
2.95161414146	1564
2.95202493668	1564
2.95278191566	1565
2.9535150528	1563
2.95418214798	1565
2.95512294769	1563
2.95553398132	1566
2.95623397827	1565
2.95696401596	1566
2.9579000473	1562
2.95913314819	1562
2.95925498009	1561
2.9599609375	1563
2.96108603477	1565
2.96119904518	1565
2.96191310883	1565
2.96262693405	1564
2.9633500576	1564
2.96427202225	1563
2.96542811394	1564
2.9656329155	1561
2.96637511253	1557
2.96678805351	1555
2.96771192551	1555
2.96876811981	1553
2.96891498566	1553
2.96963906288	1553
2.97035503387	1552
2.97091507912	1553
2.97161412239	1550
2.97228097916	1550
2.97309303284	1551
2.97383213043	1546
2.97453403473	1546
2.97523808479	1545
2.97593593597	1546
2.97663593292	1546
2.9773850441	1546
2.97829794884	1549
2.97876310349	1547
2.97974205017	1548
2.98009896278	1549
2.98086094856	1549
2.98157501221	1547
2.98251104355	1547
2.98289895058	1542
2.98365092278	1537
2.98467898369	1538
2.98486804962	1534
2.98572611809	1534
2.98646306992	1532
2.98744893074	1530
2.9877910614	1530
2.98884391785	1531
2.98923802376	1531
2.99016904831	1530
2.99094796181	1529
2.99138402939	1529
2.99205899239	1529
2.99302506447	1530
2.99420213699	1531
2.99432301521	1534
2.9951851368	1537
2.99557709694	1538
2.99658703804	1539
2.99685001373	1540
2.99773907661	1542
2.99848914146	1539
2.99915504456	1537
2.99986410141	1532
3.00055599213	1530
3.00127291679	1530
3.00194692612	1527
3.00264501572	1526
3.00355505943	1525
3.00389194489	1523
3.00469112396	1521
3.00562095642	1518
3.00605010986	1518
3.00704908371	1515
3.00748300552	1510
3.00817894936	1509
3.00896191597	1508
3.0096540451	1509
3.01037693024	1509
3.01103210449	1509
3.01198506355	1509
3.01236701012	1509
3.01316809654	1508
3.01381897926	1508
3.01480197906	1507
3.01519107819	1503
3.01622700691	1500
3.01658010483	1498
3.01739096642	1495
3.01829195023	1496
3.01868200302	1496
3.01951694489	1495
3.02046298981	1495
3.02084207535	1492
3.02181506157	1492
3.02220201492	1492
3.02326107025	1493
3.0235991478	1490
3.02463698387	1487
3.02487707138	1488
3.02580595016	1488
3.0264840126	1488
3.02718806267	1489
3.02782201767	1488
3.02881598473	1490
3.02925014496	1489
3.03021407127	1489
3.03060698509	1490
3.03152298927	1489
3.0318801403	1484
3.03277897835	1480
3.03348898888	1477
3.03420209885	1474
3.03513908386	1473
3.03625297546	1471
3.0364151001	1468
3.03696513176	1466
3.03768992424	1465
3.03868508339	1463
3.03904795647	1461
3.03980612755	1458
3.04076600075	1453
3.04105496407	1453
3.04185509682	1452
3.04253196716	1448
3.04327702522	1449
3.04394292831	1450
3.04491496086	1450
3.04535603523	1449
3.0460691452	1450
3.04685497284	1449
3.04781413078	1449
3.04817199707	1449
3.04892110825	1447
3.04964113235	1443
3.05036592484	1443
3.05100297928	1442
3.05168795586	1443
3.05262708664	1444
3.0530090332	1446
3.05378198624	1446
3.05475711823	1446
3.05506896973	1446
3.05588293076	1448
3.05658793449	1446
3.0573489666	1443
3.05801296234	1440
3.0587079525	1438
3.05971693993	1439
3.06001806259	1439
3.06089401245	1437
3.06181406975	1437
3.06221795082	1436
3.06299710274	1436
3.06394410133	1435
3.06440114975	1435
3.06533694267	1433
3.06571912766	1428
3.06648993492	1426
3.06720113754	1425
3.06791901588	1425
3.06861710548	1426
3.06956005096	1424
3.07064414024	1424
3.07075715065	1424
3.07146310806	1421
3.07211709023	1426
3.07305407524	1427
3.07340192795	1426
3.07417702675	1425
3.07484006882	1425
3.07587814331	1426
3.07624197006	1430
3.077023983	1433
3.07773900032	1434
3.07869911194	1439
3.07904195786	1439
3.07983994484	1442
3.08078813553	1444
3.08112001419	1444
3.08219599724	1444
3.0825419426	1441
3.08335399628	1439
3.08432507515	1440
3.08465504646	1440
3.08546996117	1441
3.08616113663	1441
3.08711695671	1441
3.08824706078	1439
3.08836102486	1442
3.08896613121	1442
3.08966302872	1441
3.09037399292	1441
3.09130311012	1441
3.09242892265	1442
3.09255409241	1443
3.09310412407	1444
3.09379792213	1449
3.09454607964	1452
3.095236063	1455
3.09593892097	1458
3.09664511681	1459
3.09742498398	1463
3.09804010391	1467
3.09900403023	1464
3.09942102432	1462
3.10008907318	1462
3.1008810997	1463
3.10155200958	1463
3.10252809525	1465
3.1029279232	1465
3.10366797447	1468
3.10437107086	1467
3.10502910614	1470
3.1057510376	1472
3.10652494431	1473
3.10722494125	1473
3.10786700249	1472
3.10882091522	1473
3.10928606987	1475
3.11001992226	1476
3.11073112488	1478
3.1116809845	1480
3.11208701134	1482
3.11286902428	1482
3.11353993416	1482
3.11423110962	1482
3.11519002914	1481
3.11560797691	1478
3.11659002304	1477
3.11685705185	1476
3.11768507957	1476
3.11844396591	1477
3.11946296692	1479
3.12061905861	1481
3.1207420826	1483
3.12119698524	1484
3.12192893028	1488
3.12286305428	1491
3.12398600578	1492
3.12410902977	1494
3.12467098236	1496
3.12568211555	1498
3.12610292435	1503
3.12707614899	1507
3.12749195099	1513
3.12813305855	1517
3.12909603119	1521
3.12957596779	1525
3.13033699989	1530
3.13104605675	1534
3.13200092316	1536
3.1324160099	1537
3.13302898407	1539
3.13383507729	1542
3.13454604149	1545
3.13545393944	1547
3.13579201698	1551
3.13652992249	1552
3.13737607002	1555
3.13806605339	1555
3.1390349865	1560
3.13940000534	1563
3.14010500908	1564
3.14112496376	1564
3.14146900177	1567
3.14224600792	1570
3.1429901123	1576
3.14360594749	1580
3.14452195168	1585
3.14494013786	1588
3.14575004578	1591
3.14672207832	1595
3.14717197418	1599
3.14791202545	1602
3.14891600609	1604
3.14926695824	1600
3.15022301674	1605
3.15064406395	1606
3.15141606331	1608
3.15208697319	1611
3.15281510353	1614
3.15350103378	1616
3.15413808823	1619
3.15489602089	1622
3.15560507774	1627
3.15655207634	1630
3.15685105324	1631
3.1579220295	1632
3.15908408165	1634
3.15920591354	1639
3.15981912613	1644
3.16077303886	1649
3.16112303734	1654
3.16213107109	1657
3.16255903244	1661
3.16354393959	1662
3.16385197639	1666
3.16489601135	1668
3.16532993317	1667
3.16607904434	1667
3.16680598259	1667
3.16774296761	1668
3.16804504395	1670
3.16897511482	1671
3.16967010498	1671
3.17042613029	1672
3.17129206657	1672
3.17171311378	1672
3.17237997055	1671
3.17306804657	1672
3.17404913902	1670
3.17451095581	1668
3.17552495003	1668
3.17590904236	1671
3.17668008804	1673
3.17762708664	1674
3.17801308632	1678
3.17877197266	1680
3.17946314812	1681
3.18012094498	1683
3.18089294434	1687
3.18156695366	1685
3.18228411674	1682
3.18297600746	1679
3.18393301964	1678
3.18437695503	1676
3.18501210213	1676
3.18579602242	1676
3.18649792671	1676
3.18720793724	1674
3.18782305717	1672
3.18859601021	1673
3.18929100037	1674
3.18999910355	1672
3.19069910049	1671
3.19135808945	1671
3.19203901291	1672
3.19282197952	1674
3.1934940815	1676
3.19421601295	1679
3.19492292404	1679
3.1955499649	1683
3.19658398628	1683
3.19683814049	1684
3.19767093658	1685
3.19866108894	1683
3.19914507866	1681
3.2001490593	1678
3.20123910904	1675
3.20135307312	1676
3.20221805573	1675
3.20261907578	1675
3.20335793495	1674
3.20431113243	1673
3.20473909378	1671
3.20545291901	1672
3.20612192154	1672
3.2069029808	1668
3.20781493187	1667
3.20815110207	1666
3.20926403999	1669
3.2095990181	1668
3.21059203148	1672
3.21102595329	1674
3.21197295189	1676
3.21239209175	1678
3.21310710907	1679
3.21390604973	1683
3.21456408501	1683
3.21557497978	1681
3.21596503258	1675
3.21672010422	1673
3.21747303009	1672
3.21805906296	1670
3.21904706955	1669
3.21942996979	1667
3.22014498711	1666
3.22110295296	1665
3.2216129303	1663
3.22237110138	1664
3.22305512428	1664
3.22400593758	1662
3.22447013855	1660
3.22538709641	1660
3.2257540226	1661
3.22653102875	1664
3.22718000412	1666
3.22815299034	1668
3.22857999802	1669
3.22929406166	1670
3.23031711578	1671
3.23067498207	1673
3.23149299622	1674
3.23218607903	1672
3.2330801487	1669
3.23354697227	1667
3.2342851162	1669
3.23496007919	1667
3.23565602303	1664
3.236328125	1664
3.23695707321	1665
3.23775196075	1663
3.23843598366	1662
3.23913693428	1663
3.23981714249	1660
3.24050712585	1656
3.24124097824	1655
3.2420129776	1653
3.24263501167	1654
3.24340415001	1655
3.24428606033	1655
3.24469208717	1656
3.245677948	1657
3.24609804153	1657
3.24707794189	1659
3.24749708176	1661
3.24853610992	1660
3.24885511398	1660
3.24995613098	1658
3.25106191635	1658
3.25117492676	1658
3.25179314613	1659
3.25247502327	1660
3.25340509415	1661
3.25381708145	1663
3.2548019886	1663
3.2552189827	1665
3.25594806671	1667
3.25663614273	1666
3.2589969635	1665
3.25921010971	1664
3.25937914848	1664
3.25954604149	1665
3.26034498215	1667
3.26117610931	1668
3.26148200035	1667
3.26254105568	1669
3.2628891468	1668
3.26361203194	1668
3.26438999176	1668
3.26497101784	1665
3.26609897614	1661
3.26636815071	1659
3.26757001877	1657
3.26778006554	1655
3.26858997345	1655
3.26961994171	1654
3.26997709274	1653
3.27077198029	1653
3.27165913582	1653
3.27206802368	1654
3.2728741169	1654
3.27358412743	1653
3.27428603172	1652
3.27495908737	1652
3.27589797974	1653
3.27628898621	1655
3.27703404427	1657
3.27800393105	1659
3.2784049511	1661
3.27943015099	1661
3.27977013588	1664
3.28055214882	1665
3.28151011467	1665
3.28189706802	1662
3.28290295601	1660
3.28342199326	1658
3.28402709961	1657
3.28501796722	1657
3.28535294533	1660
3.28642606735	1660
3.28677201271	1661
3.2876060009	1661
3.28831911087	1662
3.28922510147	1663
3.28957414627	1665
3.29068994522	1663
3.29102396965	1662
3.29173111916	1662
3.2925491333	1664
3.29313898087	1665
3.29412293434	1666
3.29453206062	1668
3.29527306557	1669
3.29594707489	1669
3.29694914818	1669
3.29731607437	1669
3.29806399345	1664
3.29878091812	1664
3.29972910881	1662
3.30012011528	1658
3.30089306831	1657
3.30157208443	1658
3.30225896835	1658
3.30322599411	1658
3.3035800457	1658
3.30432295799	1659
3.30505013466	1660
3.30605006218	1662
3.30643010139	1662
3.30750393867	1662
3.30781793594	1662
3.3085899353	1661
3.30928611755	1664
3.31000804901	1666
3.31069993973	1669
3.31140804291	1671
3.31245112419	1672
3.31277608871	1674
3.31355714798	1675
3.31426310539	1677
3.31496596336	1677
3.31592297554	1674
3.31640696526	1672
3.31704211235	1671
3.31776094437	1670
3.31842112541	1671
3.31940603256	1671
3.31976008415	1672
3.32049012184	1671
3.32156205177	1670
3.32258701324	1670
3.32269906998	1671
3.32340407372	1668
3.32402300835	1666
3.32500696182	1665
3.32614898682	1666
3.32626914978	1668
3.32709002495	1669
3.32752108574	1671
3.32847499847	1672
3.32964396477	1673
3.32976508141	1676
3.33042597771	1676
3.33134412766	1676
3.3316860199	1675
3.33240008354	1672
3.33319091797	1669
3.33416104317	1668
3.33453702927	1666
3.33528900146	1666
3.33593297005	1665
3.33670306206	1665
3.33736610413	1662
3.33816814423	1661
3.3391020298	1663
3.33944392204	1664
3.34024310112	1661
3.34092593193	1660
3.34156799316	1660
3.34230613708	1661
3.34329509735	1665
3.34359693527	1667
3.34438896179	1671
3.34553098679	1672
3.34567594528	1675
3.34655308723	1676
3.34720110893	1679
3.34816193581	1681
3.3485250473	1680
3.34926891327	1677
3.35001993179	1675
3.35072898865	1674
3.35165691376	1674
3.3521399498	1675
3.35285210609	1674
3.35355496407	1676
3.35449910164	1675
3.35490298271	1677
3.35593605042	1680
3.35643005371	1683
3.35698199272	1682
3.35774493217	1685
3.35869503021	1688
3.35909199715	1693
3.36022114754	1696
3.36046409607	1701
3.36130213737	1704
3.36201095581	1708
3.36271309853	1710
3.36345601082	1710
3.36431598663	1713
3.36476993561	1713
3.36550712585	1711
3.3664560318	1707
3.36681103706	1705
3.36759305	1703
3.36830401421	1700
3.36900401115	1700
3.36968708038	1698
3.37050414085	1697
3.37105607986	1695
3.37181591988	1695
3.37249493599	1695
3.37315297127	1695
3.37387514114	1689
3.37454509735	1688
3.37529802322	1687
3.37593913078	1687
3.37692809105	1690
3.37807893753	1692
3.37819099426	1693
3.37908411026	1694
3.37945103645	1695
3.3801920414	1696
3.38115501404	1697
3.38157606125	1697
3.38256192207	1693
3.38289999962	1691
3.38379001617	1691
3.38472604752	1690
3.38501310349	1690
3.38586592674	1691
3.38660693169	1690
3.38726401329	1691
3.38820099831	1691
3.38855195045	1691
3.38964509964	1692
3.38993692398	1690
3.39095306396	1687
3.3913359642	1686
3.39221405983	1685
3.39315700531	1684
3.39343094826	1683
3.39420509338	1681
3.39499807358	1677
3.39593696594	1673
3.39641213417	1669
3.39733600616	1665
3.39774107933	1662
3.39845705032	1655
3.39941191673	1648
3.39980101585	1643
3.40055704117	1640
3.40150713921	1639
3.40190601349	1638
3.40265011787	1640
3.40339899063	1641
3.40407013893	1641
3.40483307838	1642
3.40575194359	1645
3.40615391731	1646
3.40690398216	1644
3.40759897232	1643
3.40858697891	1643
3.40965104103	1645
3.40976309776	1646
3.41041493416	1649
3.41112303734	1650
3.41184711456	1652
3.41248893738	1653
3.41350698471	1652
3.41388106346	1651
3.41497898102	1650
3.41510605812	1645
3.41595506668	1642
3.41692113876	1638
3.41742014885	1636
3.41816306114	1636
3.41886997223	1634
3.41957211494	1635
3.42050409317	1635
3.42083692551	1634
3.42182898521	1636
3.42232298851	1638
3.42307496071	1639
3.42378807068	1638
3.42475104332	1638
3.42497014999	1639
3.4259121418	1643
3.42658114433	1644
3.42729711533	1646
3.42799496651	1649
3.4286839962	1650
3.42939114571	1650
3.43028402328	1651
3.430768013	1652
3.43147802353	1650
3.4321680069	1646
3.43290495872	1642
3.43385696411	1640
3.43424510956	1638
3.4349899292	1636
3.43596291542	1634
3.43644714355	1634
3.43700695038	1631
3.43768906593	1629
3.43844103813	1629
3.43913412094	1630
3.43984007835	1627
3.44053411484	1625
3.44143414497	1623
3.44186306	1623
3.44290709496	1623
3.44331407547	1624
3.44407391548	1626
3.44482803345	1628
3.44553494453	1627
3.44621014595	1627
3.44690108299	1629
3.44784498215	1628
3.44897413254	1624
3.44908595085	1620
3.44970107079	1615
3.45043992996	1614
3.45105195045	1613
3.45203208923	1612
3.45246315002	1612
3.45319509506	1611
3.45387411118	1609
3.45457792282	1610
3.45530104637	1610
3.45595407486	1611
3.4566719532	1610
3.45740103722	1608
3.45809292793	1608
3.45880413055	1611
3.45986413956	1613
3.46016001701	1617
3.46117401123	1619
3.46158313751	1621
3.46224498749	1625
3.46301293373	1627
3.46371507645	1629
3.46439409256	1632
3.46500992775	1630
3.46584010124	1628
3.46652793884	1626
3.46722006798	1625
3.46794891357	1623
3.4686229229	1623
3.46962594986	1620
3.47074007988	1616
3.47086501122	1611
3.47148013115	1606
3.47219705582	1600
3.47295713425	1594
3.47356510162	1588
3.47454595566	1582
3.47571992874	1580
3.47584795952	1580
3.47647595406	1580
3.47734713554	1579
3.47776794434	1578
3.47850298882	1574
3.47917604446	1566
3.48012900352	1553
3.48055410385	1537
3.48155808449	1513
3.48197793961	1484
3.4827029705	1451
3.48365402222	1418
3.48476409912	1383
3.48491191864	1347
3.4855530262	1314
3.4865000248	1278
3.4868991375	1242
3.48790001869	1210
3.48829507828	1175
3.48904895782	1142
3.48978114128	1110
3.49037504196	1072
3.49110293388	1038
3.49180698395	1004
3.49278712273	975
3.49393296242	952
3.4940559864	929
3.49490404129	909
3.49502897263	892
3.4959089756	880
3.49601411819	870
3.497164011	864
3.4972679615	861
3.49848413467	860
3.4985871315	860
3.49964094162	862
3.49974513054	871
3.50088095665	885
3.50098109245	904
3.50197100639	928
3.5020711422	956
3.50321912766	986
3.50331997871	1015
3.50419306755	1051
3.504956007	1081
3.50583314896	1108
3.50630402565	1130
3.50706315041	1139
3.50802612305	1142
3.50909805298	1141
3.50924301147	1138
3.50981092453	1131
3.51051211357	1124
3.51125597954	1115
3.51222205162	1109
3.51261115074	1105
3.51361298561	1102
3.51401114464	1105
3.51501011848	1114
3.51545596123	1129
3.5161819458	1152
3.51696205139	1180
3.5178809166	1219
3.51821613312	1265
3.51928210258	1320
3.51960802078	1382
3.52068209648	1452
3.52088904381	1528
3.52209401131	1611
3.52244210243	1698
3.523209095	1787
3.52404093742	1874
3.52452111244	1965
3.52529907227	2062
3.52598214149	2165
3.5269639492	2267
3.52807092667	2363
3.52819609642	2449
3.52906298637	2522
3.52941393852	2576
3.53048110008	2609
3.53078794479	2623
3.5316131115	2614
3.5323009491	2583
3.53328204155	2535
3.53364896774	2472
3.53465914726	2400
3.53508496284	2316
3.53612303734	2225
3.53638792038	2134
3.53745508194	2041
3.5386390686	1951
3.53876805305	1868
3.53939795494	1792
3.54026293755	1721
3.5406601429	1662
3.54141592979	1611
3.54210591316	1572
3.54309105873	1547
3.54346895218	1528
3.54417395592	1519
3.54512214661	1516
3.54632210732	1517
3.54645705223	1523
3.54704213142	1532
3.54794311523	1542
3.54833292961	1552
3.54948091507	1560
3.54963493347	1569
3.55062103271	1578
3.55155897141	1586
3.55192494392	1593
3.55270910263	1601
3.55342411995	1604
3.5543179512	1607
3.55475211143	1608
3.55580711365	1609
3.55611991882	1609
3.55690693855	1605
3.55782198906	1600
3.55823111534	1596
3.55922102928	1593
3.56041812897	1591
3.56054091454	1589
3.56134605408	1586
3.56171393394	1584
3.5624229908	1582
3.56325006485	1580
3.56385397911	1577
3.5645840168	1577
3.56521511078	1572
3.56597208977	1567
3.56663513184	1563
3.56743597984	1561
3.56836009026	1560
3.56883907318	1560
3.56977796555	1560
3.57015705109	1560
3.57089495659	1560
3.57155895233	1560
3.57229995728	1561
3.57299399376	1561
3.57372403145	1558
3.57465100288	1558
3.57502198219	1558
3.5758459568	1559
3.57683396339	1561
3.57715892792	1563
3.57821798325	1565
3.57855892181	1566
3.57937502861	1567
3.58029913902	1567
3.58067297935	1568
3.58148813248	1568
3.58218193054	1565
3.58288097382	1562
3.58358001709	1560
3.58453297615	1558
3.58564805984	1558
3.58576202393	1558
3.5863609314	1556
3.58732795715	1555
3.5875749588	1555
3.58843111992	1554
3.58912014961	1556
3.59008693695	1555
3.5911989212	1552
3.59131097794	1548
3.59221410751	1550
3.59251093864	1550
3.59330892563	1550
3.59406614304	1553
3.59477210045	1554
3.59544610977	1554
3.59614706039	1555
3.59686803818	1555
3.59754705429	1554
3.59828305244	1552
3.59907197952	1548
3.59968400002	1546
3.60046505928	1543
3.60108995438	1542
3.6017870903	1541
3.60272192955	1541
3.60384607315	1538
3.60400295258	1539
3.6048719883	1537
3.60595607758	1536
3.60611701012	1538
3.6069560051	1535
3.60740399361	1532
3.60810804367	1531
3.60918593407	1530
3.60936403275	1531
3.61049008369	1530
3.61085510254	1533
3.6116669178	1534
3.61255908012	1536
3.61373901367	1534
3.6139190197	1535
3.61449098587	1536
3.61543011665	1532
3.6157951355	1529
3.61656212807	1524
3.61723804474	1525
3.61795091629	1524
3.61865210533	1523
3.61937904358	1521
3.6202981472	1520
3.62063193321	1520
3.62170505524	1521
3.62209010124	1519
3.62284111977	1519
3.62353801727	1517
3.62423300743	1517
3.62496304512	1515
3.62561106682	1515
3.62674212456	1516
3.62688803673	1517
3.62772011757	1517
3.62843298912	1516
3.62907099724	1516
3.62988901138	1515
3.63081812859	1514
3.63115596771	1514
3.63195300102	1509
3.63266301155	1503
3.63335514069	1502
3.63406300545	1499
3.63501501083	1497
3.63542199135	1495
3.6361811161	1493
3.63687896729	1492
3.63756203651	1488
3.6385409832	1488
3.63893914223	1488
3.63968801498	1488
3.64044904709	1485
3.64108109474	1483
3.64175415039	1482
3.64243412018	1483
3.64322710037	1484
3.64390993118	1486
3.64462304115	1487
3.64524912834	1488
3.64628696442	1488
3.64667797089	1487
3.64748501778	1487
3.6484041214	1485
3.64860701561	1480
3.64973711967	1475
3.65020895004	1473
3.6510989666	1470
3.65231895447	1466
3.6524310112	1464
3.6530520916	1463
3.65375900269	1460
3.65461301804	1460
3.65504908562	1460
3.65602111816	1458
3.65642809868	1458
3.65718698502	1456
3.65789914131	1455
3.65877795219	1455
3.65918111801	1457
3.6599240303	1458
3.6606760025	1459
3.66143107414	1461
3.66248106956	1463
3.6635529995	1464
3.66366505623	1464
3.6642780304	1465
3.66518497467	1462
3.66553092003	1459
3.66665792465	1455
3.66773414612	1452
3.66785407066	1449
3.66839694977	1448
3.66906404495	1445
3.6699090004	1444
3.67061114311	1441
3.67156100273	1439
3.67267107964	1437
3.67278313637	1436
3.67364907265	1435
3.6740500927	1432
3.67500901222	1431
3.67546796799	1430
3.67621994019	1432
3.67691302299	1434
3.67763400078	1436
3.67849707603	1438
3.67960691452	1441
3.67972898483	1440
3.6805999279	1441
3.6809129715	1442
3.68191099167	1440
3.68240499496	1438
3.68316507339	1436
3.68412208557	1435
3.68523311615	1435
3.68535494804	1436
3.68622803688	1437
3.68662810326	1437
3.68767809868	1437
3.68877696991	1441
3.68891406059	1436
3.68947911263	1439
3.69015908241	1436
3.69095611572	1432
3.69164705276	1433
3.69228506088	1434
3.69299912453	1434
3.69367408752	1436
3.69464993477	1437
3.69503498077	1438
3.69579792023	1439
3.69649600983	1440
3.69717311859	1442
3.69820404053	1443
3.698595047	1442
3.69932508469	1439
3.70029711723	1438
3.70075798035	1441
3.70143508911	1440
3.70212197304	1441
3.70289206505	1442
3.70361304283	1441
3.70456314087	1442
3.70482206345	1444
3.70565700531	1445
3.70633101463	1445
3.70729112625	1443
3.70776200294	1442
3.70851397514	1442
3.7095220089	1445
3.70965695381	1445
3.71086812019	1450
3.71130204201	1453
3.71201395988	1455
3.71295404434	1458
3.7140519619	1458
3.71416592598	1462
3.71504402161	1463
3.71546792984	1461
3.71618914604	1461
3.71692800522	1462
3.71753692627	1464
3.71823191643	1463
3.71927213669	1465
3.71964406967	1466
3.72047114372	1467
3.72108697891	1468
3.7218439579	1469
3.72254395485	1470
3.72354102135	1472
3.72373008728	1470
3.72465705872	1470
3.72560405731	1470
3.72591614723	1473
3.72703313828	1477
3.72740101814	1479
3.72816896439	1481
3.72893595695	1486
3.72975301743	1488
3.7302749157	1488
3.73098397255	1491
3.73170208931	1491
3.73263692856	1494
3.73287200928	1488
3.73381209373	1488
3.73475813866	1488
3.73584604263	1490
3.73597002029	1490
3.73659014702	1491
3.73731899261	1491
3.73826599121	1491
3.7385969162	1493
3.73939609528	1494
3.74035811424	1495
3.74069094658	1494
3.74177503586	1494
3.74210810661	1495
3.74284911156	1499
3.74356508255	1504
3.74425506592	1509
3.74499297142	1514
3.74561715126	1517
3.74634599686	1520
3.74702906609	1525
3.74772810936	1530
3.74867796898	1532
3.74908614159	1534
3.75009894371	1536
3.7505030632	1538
3.75144004822	1541
3.75257897377	1545
3.75269198418	1548
3.7533800602	1549
3.75414991379	1551
3.75509095192	1554
3.75548791885	1555
3.75624299049	1559
3.75691795349	1558
3.75761508942	1561
3.75852298737	1563
3.75894212723	1566
3.75979113579	1571
3.76070094109	1575
3.76182103157	1581
3.7619330883	1585
3.76256108284	1590
3.76325201988	1594
3.76395511627	1600
3.76490998268	1604
3.76527404785	1603
3.76593208313	1603
3.76674294472	1604
3.76757192612	1605
3.76802802086	1608
3.76881814003	1609
3.76950311661	1611
3.77045202255	1612
3.77091312408	1613
3.77168107033	1615
3.77264404297	1618
3.77284908295	1619
3.7739470005	1620
3.77444195747	1621
3.77519512177	1623
3.77588295937	1626
3.77658891678	1630
3.77730298042	1636
3.77823996544	1640
3.77940702438	1644
3.77951693535	1646
3.78032398224	1650
3.78075814247	1653
3.78173708916	1654
3.78210306168	1654
3.78292894363	1653
3.78381896019	1653
3.78413796425	1654
3.78519511223	1655
3.78560805321	1657
3.78644895554	1657
3.78732514381	1660
3.78766703606	1660
3.78846096992	1663
3.78952312469	1667
3.78972601891	1668
3.7906870842	1668
3.79117703438	1668
3.79202198982	1670
3.79298901558	1672
3.79339408875	1675
3.7944009304	1680
3.79479503632	1682
3.79554510117	1686
3.79625606537	1687
3.79711413383	1690
3.79844808578	1693
3.79855895042	1692
3.79900813103	1690
3.79976010323	1689
3.80072903633	1688
3.80097007751	1687
3.80214715004	1687
3.80244803429	1686
3.80328011513	1687
3.80400896072	1686
3.80466103554	1685
3.80537295341	1687
3.80607104301	1688
3.80704212189	1687
3.80743098259	1688
3.80817103386	1687
3.80911302567	1690
3.80950403214	1690
3.81022596359	1694
3.8112051487	1698
3.81154298782	1699
3.81257510185	1701
3.81291007996	1701
3.81369805336	1701
3.81448602676	1701
3.81520605087	1698
3.81591892242	1695
3.81650900841	1692
3.81757307053	1690
3.81795811653	1690
3.81896996498	1688
3.81943702698	1688
3.82033395767	1686
3.82077002525	1683
3.82151913643	1683
3.82221198082	1682
3.82316613197	1681
3.8235039711	1678
3.82427597046	1675
3.82502198219	1674
3.82598900795	1675
3.82637310028	1675
3.82708692551	1676
3.82778406143	1679
3.82874107361	1680
3.82907509804	1679
3.83013701439	1678
3.8305311203	1680
3.83128094673	1680
3.83223605156	1677
3.83265209198	1673
3.83340406418	1672
3.83408498764	1670
3.83504509926	1670
3.83545994759	1669
3.83643198013	1667
3.83689594269	1668
3.83765101433	1668
3.83836603165	1668
3.83931493759	1670
3.83970999718	1671
3.8404519558	1669
3.84110403061	1668
3.84184598923	1667
3.84278512001	1668
3.84318208694	1670
3.84398698807	1671
3.84475302696	1672
3.84564709663	1672
3.84599208832	1670
3.84705400467	1670
3.8473880291	1671
3.84816408157	1668
3.84912014008	1665
3.84949111938	1661
3.85050702095	1659
3.85095596313	1658
3.85197114944	1656
3.85299897194	1656
3.85311102867	1657
3.85381793976	1655
3.85450291634	1655
3.85548710823	1654
3.85655212402	1657
3.85666513443	1658
3.85730409622	1656
3.85799503326	1656
3.85892415047	1657
3.85939908028	1660
3.8601360321	1662
3.86077094078	1666
3.86149907112	1668
3.86217403412	1669
3.86289596558	1672
3.86359596252	1672
3.86452913284	1674
3.8648891449	1675
3.86570692062	1671
3.86672306061	1668
3.86704111099	1666
3.86813998222	1666
3.8691239357	1664
3.86924791336	1664
3.86991596222	1663
3.87068295479	1662
3.87134408951	1660
3.8720331192	1661
3.8727619648	1663
3.87350797653	1660
3.87417292595	1658
3.87484693527	1657
3.87560391426	1659
3.87627911568	1659
3.87700414658	1659
3.87797808647	1660
3.87914991379	1662
3.87932610512	1662
3.8797750473	1663
3.88072299957	1664
3.88107895851	1667
3.88189196587	1663
3.88258910179	1660
3.88354611397	1659
3.88393998146	1656
3.88499403	1656
3.8851480484	1652
3.88608813286	1652
3.88678503036	1651
3.88774609566	1650
3.88816809654	1650
3.88911604881	1650
3.88955307007	1650
3.89023995399	1649
3.89117407799	1647
3.89167714119	1646
3.89232611656	1647
3.89304900169	1649
3.8940680027	1650
3.89447808266	1651
3.89549612999	1653
3.89568209648	1653
3.89661502838	1656
3.89732098579	1659
3.89800095558	1660
3.89866399765	1658
3.89941096306	1656
3.90004706383	1657
3.90075206757	1657
3.90145206451	1657
3.90214514732	1658
3.90285396576	1659
3.90387892723	1661
3.90428209305	1660
3.90499806404	1661
3.90599513054	1662
3.90645694733	1662
3.90707492828	1660
3.90813112259	1659
3.90830492973	1658
3.90925312042	1660
3.90996313095	1661
3.91066598892	1661
3.91162204742	1664
3.91201400757	1663
3.91275811195	1665
3.91350698471	1664
3.91418194771	1664
3.91514492035	1665
3.91553997993	1662
3.91650295258	1659
3.91686797142	1657
3.91768813133	1656
3.91864299774	1657
3.91905093193	1655
3.91977500916	1655
3.92068195343	1656
3.92104101181	1656
3.92214107513	1659
3.92253708839	1660
3.92327594757	1662
3.92398905754	1661
3.92468214035	1661
3.92565107346	1662
3.92601799965	1665
3.9268181324	1667
3.92776107788	1670
3.92815208435	1672
3.92902612686	1673
3.92957401276	1674
3.93056297302	1674
3.93168210983	1675
3.93179512024	1674
3.93248295784	1670
3.9330971241	1666
3.93380594254	1665
3.9345331192	1664
3.93544006348	1664
3.93590903282	1664
3.93668293953	1665
3.93731212616	1663
3.937926054	1666
3.9389090538	1661
3.93940210342	1664
3.94011592865	1663
3.94102191925	1662
3.9421620369	1660
3.94228100777	1659
3.94322609901	1660
3.94358611107	1662
3.94436192513	1663
3.94531202316	1665
3.94572806358	1666
3.9464969635	1667
3.94716906548	1669
3.94810199738	1669
3.94851303101	1668
3.94927096367	1666
3.94997406006	1663
3.95091915131	1662
3.95129799843	1662
3.95203995705	1663
3.95297908783	1666
3.95409297943	1666
3.95420503616	1668
3.95489811897	1669
3.95559597015	1670
3.95655107498	1673
3.95682907104	1673
3.95770907402	1670
3.95837306976	1671
3.95937108994	1672
3.95974898338	1674
3.96050810814	1678
3.96146893501	1682
3.96182703972	1687
3.96257710457	1689
3.96328997612	1692
3.964220047	1693
3.96455001831	1695
3.96561408043	1696
3.96595406532	1691
3.96699595451	1689
3.9674179554	1689
3.96819400787	1690
3.96889209747	1691
3.9698009491	1690
3.97024011612	1692
3.97103404999	1692
3.97167110443	1693
3.97245407104	1695
3.97331500053	1694
3.97376012802	1693
3.97452306747	1690
3.97520899773	1690
3.97591805458	1691
3.97661304474	1693
3.97732210159	1696
3.9780189991	1698
3.97873806953	1700
3.97943711281	1702
3.98013591766	1703
3.98099994659	1703
3.98141503334	1705
3.98245191574	1702
3.98288106918	1696
3.98365592957	1694
3.98420500755	1694
3.98505711555	1694
3.98572707176	1694
3.98649096489	1694
3.98735904694	1693
3.98766708374	1693
3.98843693733	1692
3.98934698105	1695
3.98993301392	1695
3.99061894417	1695
3.99159598351	1693
3.99192404747	1692
3.99270796776	1695
3.99345612526	1697
3.99412202835	1699
3.99482893944	1699
3.99562311172	1698
3.99622297287	1702
3.99698495865	1700
3.99764704704	1700
3.9983830452	1698
3.99933505058	1692
3.9997010231	1684
4.00040602684	1679
4.00109314919	1673
4.00189304352	1669
4.00259900093	1667
4.00328493118	1662
4.00405097008	1659
4.00470209122	1652
4.00543212891	1652
4.00612211227	1651
4.00678610802	1649
4.00754213333	1647
4.00819897652	1645
4.00913000107	1645
4.00950098038	1647
4.01028800011	1650
4.01095104218	1652
4.01171803474	1654
4.01240611076	1655
4.01337194443	1655
4.01383113861	1655
4.01450204849	1655
4.01521110535	1655
4.01592707634	1652
4.01689696312	1648
4.01729798317	1647
4.01801991463	1646
4.01871013641	1647
4.01966500282	1646
4.01999807358	1644
4.02078199387	1644
4.02180194855	1643
4.02222394943	1644
4.02321410179	1645
4.02353000641	1645
4.02435708046	1643
4.0250480175	1641
4.02599692345	1643
4.02642393112	1646
4.02746796608	1649
4.02772402763	1652
4.02846813202	1653
4.02925896645	1655
4.02993106842	1656
4.0306429863	1656
