0.00023889541625976562	1453
0.0004420280456542969	1567
0.0006861686706542969	1666
0.0008628368377685547	1566
0.0010368824005126953	1596
0.0012097358703613281	1708
0.0013802051544189453	1631
0.0015516281127929688	1583
0.0017232894897460938	1697
0.001894235610961914	1680
0.002065420150756836	1578
0.002236604690551758	1653
0.0024068355560302734	1717
0.002577543258666992	1606
0.0027468204498291016	1621
0.0029175281524658203	1713
0.0030870437622070312	1623
0.0032575130462646484	1566
0.0034275054931640625	1679
0.0036001205444335938	1660
0.0037703514099121094	1552
0.003941535949707031	1627
0.0041124820709228516	1668
0.004282236099243164	1554
0.004452705383300781	1577
0.004694938659667969	1677
0.004895925521850586	1592
0.0051000118255615234	1537
0.005302906036376953	1638
0.005678892135620117	1802
0.006927490234375	1667
0.011958599090576172	1697
0.017092466354370117	1788
0.02211141586303711	1669
0.027065277099609375	1646
0.0320587158203125	1779
0.03703927993774414	1744
0.041994571685791016	1633
0.0469822883605957	1722
0.05219697952270508	1746
0.05718827247619629	1621
0.062262535095214844	1688
0.06722712516784668	1765
0.07213664054870605	1653
0.07715010643005371	1634
0.0821678638458252	1768
0.08715605735778809	1714
0.09219002723693848	1608
0.09724760055541992	1703
0.1022028923034668	1741
0.10717082023620605	1619
0.1121370792388916	1664
0.11716699600219727	1753
0.12214136123657227	1665
0.1271657943725586	1641
0.13226532936096191	1757
0.13729143142700195	1703
0.142287015914917	1609
0.14725875854492188	1703
0.15227198600769043	1736
0.15719866752624512	1626
0.16234469413757324	1661
0.16733407974243164	1755
0.17242980003356934	1666
0.17745184898376465	1630
0.18249297142028809	1729
0.18745160102844238	1689
0.19245028495788574	1610
0.1973404884338379	1703
0.20235514640808105	1735
0.20734238624572754	1615
0.21238279342651367	1645
0.21736907958984375	1750
0.22234797477722168	1684
0.22730112075805664	1644
0.2322704792022705	1723
0.2372732162475586	1701
0.2422327995300293	1629
0.24719858169555664	1698
0.2522897720336914	1747
0.25730347633361816	1651
0.26224851608276367	1661
0.26721882820129395	1743
0.27222180366516113	1687
0.27723026275634766	1634
0.28224611282348633	1708
0.2872495651245117	1705
0.2922060489654541	1623
0.2971653938293457	1672
0.30220460891723633	1713
0.3072493076324463	1619
0.31222987174987793	1626
0.3172271251678467	1724
0.32222461700439453	1692
0.3271486759185791	1635
0.33216047286987305	1692
0.33705568313598633	1684
0.34210729598999023	1597
0.3470926284790039	1661
0.3521099090576172	1730
0.35722947120666504	1635
0.36219167709350586	1620
0.3671696186065674	1689
0.37216949462890625	1656
0.37720394134521484	1567
0.38219785690307617	1427
0.38722801208496094	1123
0.3923664093017578	804
0.3971874713897705	866
0.40206027030944824	1011
0.40704917907714844	835
0.4119861125946045	858
0.41688036918640137	1425
0.42192506790161133	2089
0.4269111156463623	2499
0.43187952041625977	2237
0.4368326663970947	1734
0.4418783187866211	1516
0.44691967964172363	1616
0.45193028450012207	1697
0.45693039894104004	1607
0.4618489742279053	1588
0.4668757915496826	1672
0.4718434810638428	1628
0.4768409729003906	1557
0.48184776306152344	1628
0.4868197441101074	1655
0.491835355758667	1568
0.4968380928039551	1579
0.5018167495727539	1630
0.5068390369415283	1568
0.5118017196655273	1565
0.5167679786682129	1625
0.5218238830566406	1574
0.5268387794494629	1505
0.531790018081665	1560
0.5367412567138672	1561
0.5417985916137695	1483
0.5467851161956787	1522
0.5517511367797852	1588
0.5567450523376465	1497
0.5617904663085938	1455
0.5666553974151611	1522
0.5716392993927002	1491
0.5767745971679688	1413
0.5818514823913574	1455
0.5868613719940186	1457
0.5918796062469482	1373
0.5968027114868164	1417
0.601797342300415	1483
0.606818675994873	1392
0.6118206977844238	1349
0.6167933940887451	1417
0.6218390464782715	1409
0.6268825531005859	1366
0.6317627429962158	1446
0.6367738246917725	1472
0.641810417175293	1396
0.646857738494873	1443
0.6517598628997803	1534
0.6567866802215576	1519
0.6617691516876221	1560
0.666715145111084	1682
0.6717586517333984	1691
0.6767194271087646	1657
0.6818287372589111	1743
0.6868844032287598	1789
0.6919758319854736	1725
0.6968321800231934	1764
0.7019212245941162	1842
0.7069690227508545	1784
0.7119226455688477	1753
0.7169017791748047	1829
0.7219593524932861	1820
0.7270157337188721	1768
0.7320330142974854	1831
0.7369084358215332	1835
0.7420015335083008	1752
0.7470667362213135	1796
0.75201416015625	1859
0.7570521831512451	1784
0.7619979381561279	1753
0.7670538425445557	1826
0.7720427513122559	1791
0.777076244354248	1736
0.7822158336639404	1798
0.7872138023376465	1815
0.7922654151916504	1725
0.7971680164337158	1742
0.802177906036377	1796
0.8072154521942139	1736
0.8123068809509277	1734
0.817357063293457	1805
0.8223519325256348	1755
0.8273985385894775	1700
0.8322889804840088	1774
0.8372941017150879	1780
0.8423974514007568	1689
0.8474297523498535	1718
0.8524467945098877	1779
0.8574512004852295	1710
0.8624069690704346	1718
0.8672919273376465	1789
0.8723416328430176	1735
0.8773758411407471	1692
0.8823904991149902	1775
0.8873758316040039	1779
0.8923473358154297	1698
0.8973970413208008	1743
0.9024093151092529	1787
0.9073436260223389	1681
0.9123451709747314	1681
0.9173808097839355	1747
0.9222590923309326	1714
0.9272451400756836	1686
0.932208776473999	1762
0.9371852874755859	1749
0.9422028064727783	1663
0.947138786315918	1730
0.9522502422332764	1808
0.9572834968566895	1725
0.9622213840484619	1712
0.9673445224761963	1794
0.9723465442657471	1750
0.9774045944213867	1699
0.9823908805847168	1769
0.9873149394989014	1752
0.9923193454742432	1651
0.9973664283752441	1677
1.0023577213287354	1705
1.0073468685150146	1632
1.0124232769012451	1660
1.0174803733825684	1744
1.0224881172180176	1688
1.027425765991211	1637
1.0325007438659668	1696
1.0375900268554688	1664
1.0425446033477783	1609
1.0475919246673584	1681
1.0526504516601562	1699
1.057626724243164	1606
1.0626211166381836	1641
1.067551612854004	1713
1.07259202003479	1592
1.0776026248931885	1483
1.0826210975646973	1350
1.0877125263214111	1072
1.092777967453003	780
1.097614049911499	761
1.102471113204956	877
1.1073782444000244	851
1.1123006343841553	804
1.1171693801879883	1190
1.122131586074829	1933
1.127242088317871	2587
1.1321649551391602	2443
1.137223243713379	1787
1.1422462463378906	1498
1.1472651958465576	1672
1.1523587703704834	1709
1.1574020385742188	1529
1.1624705791473389	1527
1.1673204898834229	1617
1.1722965240478516	1555
1.1773500442504883	1522
1.182396411895752	1590
1.1875355243682861	1537
1.1926031112670898	1468
1.1974678039550781	1551
1.2024738788604736	1564
1.2074816226959229	1451
1.21242094039917	1483
1.2174642086029053	1553
1.2224678993225098	1459
1.227508544921875	1441
1.2324166297912598	1527
1.2373988628387451	1465
1.2425057888031006	1375
1.2474985122680664	1461
1.2526423931121826	1474
1.2576079368591309	1355
1.262559413909912	1396
1.2676076889038086	1444
1.272665023803711	1327
1.2777342796325684	1307
1.2827239036560059	1385
1.2877495288848877	1307
1.2927186489105225	1232
1.2977468967437744	1320
1.302727222442627	1309
1.3077490329742432	1197
1.3126952648162842	1258
1.317728042602539	1319
1.322664499282837	1215
1.3276879787445068	1217
1.3326013088226318	1342
1.337587833404541	1295
1.3427073955535889	1238
1.3476638793945312	1365
1.3527395725250244	1410
1.3577055931091309	1346
1.3627393245697021	1461
1.3677055835723877	1573
1.3726599216461182	1512
1.377669095993042	1549
1.3826878070831299	1673
1.387702465057373	1634
1.3928213119506836	1608
1.397745132446289	1732
1.4027066230773926	1729
1.407754898071289	1630
1.4127697944641113	1704
1.4177253246307373	1763
1.4227566719055176	1660
1.4278571605682373	1678
1.432723045349121	1771
1.437690258026123	1698
1.442737102508545	1643
1.4478001594543457	1750
1.4528398513793945	1730
1.4579048156738281	1621
1.4628546237945557	1690
1.467846155166626	1733
1.4729139804840088	1632
1.4780893325805664	1684
1.4830186367034912	1765
1.488152265548706	1650
1.4932115077972412	1597
1.4982054233551025	1708
1.5031929016113281	1678
1.5082781314849854	1574
1.5132465362548828	1655
1.5182394981384277	1700
1.5231928825378418	1605
1.5281128883361816	1622
1.5332310199737549	1702
1.5381553173065186	1615
1.5432698726654053	1573
1.548259973526001	1682
1.5532591342926025	1668
1.558279037475586	1589
1.5632879734039307	1682
1.5682446956634521	1708
1.5732557773590088	1575
1.5783660411834717	1588
1.5833148956298828	1675
1.5883424282073975	1600
1.5932862758636475	1586
1.5982952117919922	1701
1.6032531261444092	1663
1.6084225177764893	1565
1.613497018814087	1658
1.618464708328247	1709
1.6234850883483887	1614
1.6283743381500244	1651
1.6334421634674072	1734
1.638361930847168	1661
1.6434659957885742	1644
1.6485483646392822	1745
1.6535825729370117	1685
1.6586272716522217	1558
1.6635797023773193	1605
1.6685969829559326	1632
1.6736040115356445	1547
1.6786613464355469	1593
1.6837189197540283	1659
1.688645601272583	1567
1.6936187744140625	1555
1.698667287826538	1654
1.7036449909210205	1609
1.708712100982666	1536
1.7137806415557861	1630
1.7187979221343994	1628
1.7237696647644043	1513
1.7286758422851562	1574
1.733663558959961	1672
1.7386949062347412	1536
1.7437818050384521	1408
1.7487492561340332	1442
1.753737211227417	1270
1.7587220668792725	960
1.7636358737945557	827
1.7684969902038574	764
1.7733006477355957	793
1.7782084941864014	1017
1.7832973003387451	1027
1.788257360458374	916
1.7932205200195312	1500
1.798231601715088	2451
1.8032052516937256	2618
1.8081858158111572	1863
1.813234806060791	1476
1.8181610107421875	1554
1.8231422901153564	1553
1.8280417919158936	1528
1.8330061435699463	1536
1.8380062580108643	1449
1.8430476188659668	1443
1.8479907512664795	1556
1.8530323505401611	1526
1.8580174446105957	1414
1.8629393577575684	1480
1.8679637908935547	1534
1.8730432987213135	1421
1.878093957901001	1449
1.8830175399780273	1565
1.8879330158233643	1479
1.8929028511047363	1375
1.8978941440582275	1461
1.902848720550537	1481
1.9078483581542969	1366
1.9128830432891846	1393
1.9179737567901611	1428
1.9229412078857422	1348
1.9278490543365479	1348
1.9328744411468506	1422
1.9379100799560547	1341
1.9429898262023926	1271
1.9479951858520508	1354
1.9530627727508545	1332
1.9580469131469727	1216
1.962947130203247	1262
1.967989444732666	1303
1.9730162620544434	1192
1.9779958724975586	1188
1.9830231666564941	1284
1.9880046844482422	1219
1.9931151866912842	1157
1.9979865550994873	1247
2.0030839443206787	1252
2.0080270767211914	1166
2.0131075382232666	1244
2.0180389881134033	1323
2.0230321884155273	1261
2.0280098915100098	1312
2.0329384803771973	1451
2.037963628768921	1428
2.0430543422698975	1423
2.0480146408081055	1572
2.0531187057495117	1609
2.0580811500549316	1530
2.063018321990967	1613
2.0681965351104736	1691
2.073206663131714	1624
2.078190565109253	1645
2.0832037925720215	1724
2.088233232498169	1654
2.093299388885498	1621
2.098184585571289	1720
2.103163242340088	1711
2.1081907749176025	1628
2.1132240295410156	1702
2.1181061267852783	1740
2.123152256011963	1627
2.128147602081299	1638
2.1330373287200928	1734
2.137993097305298	1666
2.1430156230926514	1600
2.14809513092041	1695
2.153104305267334	1685
2.1580944061279297	1588
2.163060188293457	1662
2.168116807937622	1704
2.173200845718384	1592
2.1782138347625732	1608
2.1831858158111572	1702
2.1882457733154297	1631
2.1932590007781982	1573
2.1980831623077393	1665
2.2031757831573486	1658
2.208176374435425	1568
2.213244676589966	1644
2.2182624340057373	1689
2.2232367992401123	1587
2.228189706802368	1598
2.233280658721924	1684
2.2383527755737305	1608
2.2433950901031494	1567
2.2484993934631348	1676
2.2535200119018555	1653
2.258511781692505	1567
2.2634692192077637	1648
2.2685115337371826	1691
2.2735719680786133	1583
2.2785699367523193	1609
2.283590078353882	1710
2.2886416912078857	1644
2.293773651123047	1614
2.2986652851104736	1718
2.303723096847534	1685
2.3087997436523438	1598
2.3138794898986816	1681
2.3189048767089844	1692
2.323909044265747	1567
2.3288846015930176	1592
2.3338241577148438	1667
2.3387982845306396	1575
2.3438401222229004	1557
2.3487656116485596	1670
2.3538124561309814	1632
2.3588528633117676	1538
2.3637478351593018	1613
2.368715524673462	1643
2.373807430267334	1531
2.378803253173828	1563
2.3837764263153076	1644
2.388831615447998	1561
2.393864631652832	1526
2.3987438678741455	1593
2.403667688369751	1495
2.4088261127471924	1309
2.4138286113739014	1163
2.4188156127929688	928
2.4237523078918457	659
2.4286837577819824	768
2.4334962368011475	1136
2.438488006591797	1181
2.443459987640381	996
2.4483840465545654	1260
2.4534149169921875	1954
2.4583799839019775	2505
2.463393211364746	2295
2.468325614929199	1723
2.4733073711395264	1448
2.4783501625061035	1581
2.4833765029907227	1679
2.488415241241455	1516
2.493605613708496	1440
2.498624563217163	1562
2.503563642501831	1558
2.508540153503418	1462
2.5135726928710938	1521
2.5185227394104004	1554
2.5235671997070312	1443
2.5285823345184326	1468
2.533498764038086	1548
2.5384914875030518	1461
2.543564796447754	1418
2.5485622882843018	1512
2.553561210632324	1485
2.558605432510376	1387
2.5634446144104004	1453
2.5684335231781006	1486
2.573523759841919	1376
2.5784194469451904	1382
2.5834743976593018	1457
2.588545083999634	1366
2.593552827835083	1313
2.5984694957733154	1399
2.603520393371582	1358
2.6085193157196045	1256
2.6136105060577393	1326
2.6186609268188477	1342
2.6237118244171143	1212
2.6286511421203613	1227
2.6336750984191895	1307
2.6386919021606445	1217
2.6437416076660156	1175
2.648691177368164	1267
2.653761148452759	1236
2.6587135791778564	1156
2.6636669635772705	1255
2.6686699390411377	1304
2.673818349838257	1223
2.678784132003784	1303
2.683744192123413	1445
2.688692808151245	1416
2.693718671798706	1431
2.6987385749816895	1577
2.703645944595337	1594
2.7086808681488037	1553
2.713711738586426	1664
2.718759775161743	1722
2.723780870437622	1647
2.7287404537200928	1699
2.7337734699249268	1789
2.7388486862182617	1710
2.743884563446045	1693
2.7489256858825684	1796
2.754024028778076	1758
2.7590363025665283	1683
2.763895034790039	1775
2.7689175605773926	1792
2.773918867111206	1680
2.7789225578308105	1719
2.7839651107788086	1796
2.788902521133423	1706
2.7939107418060303	1675
2.7987937927246094	1776
2.8037936687469482	1742
2.808865547180176	1653
2.813868284225464	1729
2.81880521774292	1754
2.82375431060791	1649
2.8288474082946777	1685
2.8337714672088623	1756
2.838813304901123	1664
2.8438663482666016	1641
2.848870038986206	1739
2.8538925647735596	1696
2.858919620513916	1611
2.8638439178466797	1699
2.868957281112671	1720
2.87398099899292	1621
2.8790621757507324	1666
2.8840417861938477	1736
2.8890318870544434	1641
2.8940086364746094	1619
2.898965358734131	1723
2.9040322303771973	1683
2.909154176712036	1601
2.9142322540283203	1691
2.9192678928375244	1713
2.924252510070801	1617
2.929375410079956	1672
2.9343061447143555	1733
2.9392707347869873	1638
2.944304943084717	1637
2.9493086338043213	1746
2.9542572498321533	1709
2.959272861480713	1648
2.964244842529297	1745
2.9692578315734863	1763
2.9743361473083496	1649
2.979330062866211	1704
2.984297037124634	1766
2.9892942905426025	1654
2.9942805767059326	1612
2.9992408752441406	1705
3.0042648315429688	1664
3.009444236755371	1597
3.0144355297088623	1694
3.019392490386963	1708
3.0243914127349854	1610
3.0294265747070312	1663
3.034412384033203	1714
3.039400339126587	1613
3.044421911239624	1605
3.0494349002838135	1699
3.0544657707214355	1634
3.0594873428344727	1568
3.0644917488098145	1672
3.0694808959960938	1664
3.0744783878326416	1530
3.0794527530670166	1538
3.08443546295166	1390
3.089393377304077	995
3.0942835807800293	713
3.099168300628662	757
3.103989362716675	877
3.109042167663574	838
3.1138970851898193	844
3.1187210083007812	1208
3.1237874031066895	1855
3.1288020610809326	2569
3.1337265968322754	2492
3.1387107372283936	1777
3.1437556743621826	1485
3.148698568344116	1678
3.1537442207336426	1684
3.1587743759155273	1547
3.1636502742767334	1596
3.16874361038208	1639
3.1738293170928955	1541
3.17883038520813	1568
3.183993101119995	1635
3.1890709400177	1541
3.1940958499908447	1515
3.1989641189575195	1609
3.203869342803955	1562
3.208965539932251	1474
3.213945150375366	1559
3.218891143798828	1584
3.2238893508911133	1468
3.228933572769165	1500
3.233743667602539	1578
3.2388675212860107	1476
3.243854522705078	1439
3.2488791942596436	1541
3.253999710083008	1493
3.259016513824463	1397
3.263972520828247	1477
3.268953800201416	1485
3.2740135192871094	1361
3.2789933681488037	1390
3.28403902053833	1457
3.289102077484131	1344
3.2940855026245117	1302
3.298988103866577	1393
3.3040456771850586	1335
3.309138059616089	1244
3.314232110977173	1334
3.319249391555786	1349
3.324244737625122	1240
3.329204559326172	1297
3.3342299461364746	1379
3.339322090148926	1292
3.344414472579956	1315
3.3494250774383545	1465
3.3544819355010986	1453
3.3594913482666016	1435
3.3643760681152344	1585
3.3694064617156982	1638
3.374436140060425	1577
3.37943434715271	1680
3.3845300674438477	1780
3.3895018100738525	1699
3.3945326805114746	1707
3.3994956016540527	1810
3.404479503631592	1767
3.409562587738037	1713
3.4145305156707764	1808
3.4196224212646484	1811
3.4246573448181152	1708
3.4296419620513916	1772
3.4345128536224365	1836
3.4395499229431152	1742
3.444601058959961	1733
3.4496262073516846	1822
3.4547319412231445	1756
3.459638833999634	1694
3.464609146118164	1788
3.4696052074432373	1785
3.4746484756469727	1678
3.4797377586364746	1746
3.4847257137298584	1801
3.4897372722625732	1692
3.4947071075439453	1694
3.4996719360351562	1793
3.5046987533569336	1721
3.509793519973755	1655
3.5148065090179443	1754
3.5197548866271973	1753
3.524729013442993	1650
3.529778242111206	1720
3.5347838401794434	1773
3.5398545265197754	1670
3.5448193550109863	1680
3.549898147583008	1773
3.554886817932129	1699
3.559952735900879	1644
3.5649032592773438	1748
3.5699331760406494	1738
3.574932336807251	1637
3.5799379348754883	1713
3.5849430561065674	1770
3.5898776054382324	1664
3.5948257446289062	1678
3.5998923778533936	1778
3.6049487590789795	1705
3.609921455383301	1656
3.6149415969848633	1756
3.6199302673339844	1737
3.6250290870666504	1634
3.629991054534912	1726
3.6349897384643555	1790
3.6399118900299072	1694
3.644871473312378	1704
3.6498775482177734	1799
3.6549558639526367	1723
3.659921646118164	1666
3.6648447513580322	1767
3.669900894165039	1752
3.6748321056365967	1616
3.6798818111419678	1679
3.6849451065063477	1747
3.6899797916412354	1640
3.694973945617676	1649
3.699937343597412	1752
3.7049407958984375	1677
3.710101842880249	1610
3.7152154445648193	1706
3.7203118801116943	1686
3.7253153324127197	1585
3.7302160263061523	1653
3.7351903915405273	1698
3.740231513977051	1591
3.745267629623413	1612
3.750333547592163	1699
3.755347728729248	1604
3.760364294052124	1516
3.7652933597564697	1410
3.770284652709961	1095
3.775325298309326	703
3.7802720069885254	655
3.785165786743164	815
3.790053129196167	755
3.7949330806732178	677
3.7998316287994385	1110
3.8049890995025635	1874
3.8100011348724365	2541
3.8149943351745605	2511
3.8199784755706787	1881
3.825249195098877	1515
3.830177068710327	1677
3.8351855278015137	1744
3.8402349948883057	1565
3.8452346324920654	1544
3.8504176139831543	1649
3.8552803993225098	1585
3.860274076461792	1533
3.865171432495117	1626
3.8702168464660645	1594
3.875229597091675	1496
3.8802595138549805	1574
3.885335683822632	1617
3.8902928829193115	1500
3.8952488899230957	1506
3.9002957344055176	1589
3.9053118228912354	1507
3.910339593887329	1454
3.915332078933716	1546
3.9202537536621094	1521
3.9252753257751465	1420
3.930192470550537	1486
3.9353036880493164	1522
3.940338611602783	1405
3.9453868865966797	1415
3.9503960609436035	1489
3.9554052352905273	1396
3.9604227542877197	1343
3.965397834777832	1427
3.9703898429870605	1383
3.975389003753662	1275
3.9804940223693848	1337
3.9854984283447266	1365
3.9905054569244385	1250
3.9955122470855713	1278
4.000415802001953	1361
4.005478620529175	1275
4.010497808456421	1239
4.015525579452515	1351
4.020585298538208	1338
4.0255656242370605	1270
4.030420780181885	1389
4.035404682159424	1479
4.040441989898682	1420
4.045440435409546	1494
4.050430536270142	1629
4.055412292480469	1598
4.060434103012085	1601
4.06541633605957	1726
4.070462942123413	1718
4.075538396835327	1656
4.080592632293701	1752
4.085499286651611	1792
4.090634346008301	1696
4.095680236816406	1738
4.100605249404907	1818
4.105619430541992	1736
4.110562324523926	1706
4.115556001663208	1800
4.120561361312866	1765
4.1255903244018555	1686
4.130502223968506	1766
4.1354827880859375	1795
4.140587568283081	1686
4.145528793334961	1716
4.1505515575408936	1799
4.155519247055054	1718
4.160559177398682	1676
4.165400505065918	1767
4.170344114303589	1738
4.175414085388184	1645
4.180325031280518	1720
4.185354948043823	1757
4.190348148345947	1648
4.195300817489624	1667
4.200276851654053	1752
4.205299377441406	1674
4.210394620895386	1641
4.215392827987671	1737
4.220517635345459	1704
4.225547790527344	1615
4.230530738830566	1705
4.235515356063843	1744
4.2406041622161865	1638
4.245603322982788	1664
4.250599145889282	1745
4.255683183670044	1660
4.2606871128082275	1632
4.26561975479126	1732
4.270595550537109	1702
4.275655031204224	1620
4.2806220054626465	1699
4.285675287246704	1730
4.290754795074463	1629
4.295667886734009	1665
4.300610065460205	1741
4.305683374404907	1663
4.310680389404297	1637
4.315777540206909	1739
4.320728778839111	1714
4.3257269859313965	1642
4.33062219619751	1730
4.335660696029663	1756
4.340600490570068	1646
4.345732688903809	1686
4.350778102874756	1760
4.355840682983398	1649
4.360790491104126	1607
4.365774393081665	1702
4.370774269104004	1672
4.375735521316528	1597
4.380789518356323	1685
4.385785818099976	1709
4.390758991241455	1608
4.395819187164307	1643
4.400723218917847	1717
4.405698776245117	1628
4.410765886306763	1592
4.415729284286499	1685
4.4207634925842285	1648
4.425799131393433	1574
4.430748224258423	1659
4.435749769210815	1675
4.440773248672485	1565
4.445850849151611	1552
4.45086669921875	1413
4.455913782119751	1036
4.460900545120239	728
4.465801477432251	712
4.470712184906006	753
4.475647449493408	677
4.48053503036499	686
4.4854576587677	1126
4.490464925765991	1889
4.495460033416748	2659
4.500423431396484	2527
4.50544810295105	1785
4.5104286670684814	1530
4.515503406524658	1738
4.520594358444214	1730
4.525537967681885	1572
4.530451774597168	1617
4.5355305671691895	1661
4.540602207183838	1566
4.5455334186553955	1588
4.550531387329102	1655
4.555487632751465	1569
4.560542583465576	1537
4.5655786991119385	1637
4.5705718994140625	1601
4.5755650997161865	1520
4.58054256439209	1593
4.5855677127838135	1616
4.590528964996338	1508
4.595454692840576	1534
4.600486516952515	1608
4.605552911758423	1512
4.610616207122803	1474
4.615586996078491	1567
4.620684385299683	1525
4.625603199005127	1424
4.630506753921509	1488
4.635556936264038	1511
4.640522003173828	1404
4.645479440689087	1417
4.650500297546387	1479
4.655555009841919	1381
4.660646200180054	1337
4.665573358535767	1423
4.670522689819336	1382
4.675503969192505	1295
4.680546522140503	1373
4.685602903366089	1401
4.690618991851807	1299
4.695492506027222	1342
4.7004265785217285	1434
4.705421686172485	1363
4.710562229156494	1353
4.715534448623657	1486
4.7206034660339355	1505
4.725634574890137	1480
4.730552673339844	1608
4.735551118850708	1681
4.740682363510132	1634
4.7456300258636475	1713
4.750650882720947	1818
4.7557055950164795	1760
4.760686159133911	1766
4.765604257583618	1879
4.7705724239349365	1845
4.775575876235962	1774
4.780729532241821	1870
4.7856903076171875	1904
4.790690183639526	1802
4.7956366539001465	1839
4.8006591796875	1916
4.805659294128418	1826
4.810747385025024	1805
4.81571364402771	1909
4.820708513259888	1869
4.825783014297485	1778
4.830579519271851	1857
4.835652828216553	1892
4.840665340423584	1794
4.8457536697387695	1822
4.850747585296631	1889
4.855814218521118	1799
4.860809803009033	1777
4.865723133087158	1874
4.870651483535767	1837
4.875690221786499	1748
4.880597114562988	1823
4.885666370391846	1853
4.89066219329834	1751
4.895635604858398	1784
4.900619983673096	1858
4.9056715965271	1773
4.910764455795288	1751
4.915814161300659	1853
4.920840263366699	1812
4.92586874961853	1731
4.9308788776397705	1816
4.93577766418457	1844
4.94081449508667	1736
4.945822715759277	1778
4.950823783874512	1857
4.955836534500122	1783
4.960815191268921	1758
4.965688228607178	1846
4.970594644546509	1809
4.975573301315308	1735
4.980624198913574	1821
4.985702753067017	1865
4.990710496902466	1766
4.9955949783325195	1796
5.000609397888184	1877
5.005571126937866	1804
5.010596752166748	1773
5.01567268371582	1867
5.02074408531189	1825
5.0257909297943115	1725
5.0306689739227295	1784
5.0356574058532715	1810
5.040617942810059	1714
5.045656442642212	1751
5.050601005554199	1831
5.055651426315308	1754
5.060735464096069	1718
5.065624475479126	1806
5.070596933364868	1761
5.075628280639648	1678
5.08065128326416	1758
5.085737228393555	1773
5.090779781341553	1672
5.095677614212036	1713
5.100679159164429	1790
5.105668544769287	1682
5.11065149307251	1625
5.115657329559326	1618
5.120631694793701	1352
5.125723123550415	1011
5.130600929260254	885
5.135517597198486	893
5.140361547470093	866
5.145286798477173	834
5.1502463817596436	846
5.155163764953613	1289
5.160225868225098	2206
5.165196418762207	2881
5.170168399810791	2358
5.175241708755493	1632
5.18025016784668	1643
5.185281276702881	1854
5.190134763717651	1740
5.195102214813232	1653
5.200101852416992	1701
5.205033540725708	1658
5.210125923156738	1631
5.215214967727661	1707
5.220251560211182	1664
5.2252116203308105	1568
5.23009729385376	1641
5.235083341598511	1683
5.240033388137817	1581
5.2451887130737305	1594
5.2502281665802	1669
5.2552313804626465	1584
5.260282039642334	1541
5.265227317810059	1626
5.270169496536255	1595
5.275164842605591	1494
5.280258655548096	1558
5.285254001617432	1589
5.290243625640869	1484
5.295266151428223	1489
5.300174713134766	1557
5.305180788040161	1473
5.310262680053711	1414
5.315229892730713	1489
5.3202598094940186	1461
5.325278043746948	1352
5.330231666564941	1403
5.335186958312988	1435
5.340222597122192	1323
5.345307350158691	1335
5.350358009338379	1411
5.355345249176025	1333
5.360308647155762	1290
5.365222930908203	1386
5.370224952697754	1372
5.375274896621704	1297
5.380325794219971	1402
5.385366678237915	1483
5.390382289886475	1423
5.395388603210449	1491
5.400301456451416	1622
5.405275583267212	1589
5.410410165786743	1598
5.415405035018921	1734
5.420450448989868	1737
5.425373554229736	1672
5.430251121520996	1766
5.435276985168457	1812
5.440312147140503	1726
5.445354223251343	1759
5.450352430343628	1843
5.455420017242432	1768
5.460333585739136	1728
5.46532130241394	1824
5.470322847366333	1794
5.475426197052002	1713
5.480461835861206	1788
5.485539436340332	1817
5.490484952926636	1719
5.495402097702026	1745
5.500345468521118	1815
5.505388021469116	1731
5.51040506362915	1692
5.515373229980469	1781
5.5204339027404785	1747
5.525433301925659	1652
5.53030800819397	1722
5.5353240966796875	1763
5.540391445159912	1662
5.545470714569092	1687
5.550410985946655	1764
5.555491924285889	1678
5.560410499572754	1638
5.565370798110962	1738
5.5703957080841064	1709
5.575431823730469	1626
5.580458879470825	1696
5.585571050643921	1727
5.590535402297974	1624
5.595434188842773	1653
5.6004228591918945	1732
5.605423927307129	1651
5.610513687133789	1620
5.6154561042785645	1713
5.620498180389404	1679
5.625497102737427	1598
5.630425453186035	1682
5.635456323623657	1716
5.6405274868011475	1621
5.645567893981934	1654
5.65056586265564	1727
5.655616760253906	1645
5.66060733795166	1631
5.6654558181762695	1737
5.6704487800598145	1712
5.675485372543335	1636
5.680511236190796	1720
5.685521364212036	1745
5.690495491027832	1642
5.6953253746032715	1664
5.700322389602661	1718
5.705301761627197	1612
5.71040153503418	1567
5.71532940864563	1661
5.7203168869018555	1642
5.72531533241272	1565
5.730249643325806	1643
5.735269784927368	1669
5.74032998085022	1560
5.745385408401489	1581
5.750378370285034	1657
5.7554521560668945	1565
5.760385513305664	1528
5.765295743942261	1621
5.770272731781006	1594
5.775259733200073	1508
5.780375719070435	1571
5.785446405410767	1593
5.790501594543457	1426
5.795422077178955	1227
5.8003950119018555	1024
5.805408239364624	719
5.810405731201172	671
5.815213441848755	869
5.820201635360718	814
5.825101137161255	609
5.829863786697388	1042
5.83487868309021	1944
5.839871168136597	2542
5.84492564201355	2226
5.849955320358276	1668
5.854999542236328	1459
5.859974145889282	1542
5.864867925643921	1652
5.869961261749268	1566
5.874873399734497	1445
5.87998104095459	1533
5.885015249252319	1589
5.8900604248046875	1483
5.895055770874023	1481
5.8999457359313965	1562
5.904853582382202	1495
5.909873723983765	1445
5.914881944656372	1530
5.919859409332275	1510
5.9248206615448	1411
5.929851293563843	1479
5.934882164001465	1521
5.9398791790008545	1411
5.945036172866821	1413
5.950001239776611	1498
5.954988241195679	1423
5.959953784942627	1354
5.964895248413086	1436
5.969834566116333	1425
5.974849462509155	1327
5.97993278503418	1377
5.984926462173462	1407
5.989945411682129	1293
5.994929075241089	1281
6.000060558319092	1352
6.0051634311676025	1264
6.010285377502441	1209
6.015326738357544	1297
6.020498991012573	1262
6.025486469268799	1170
6.0304741859436035	1244
6.0354650020599365	1275
6.040525436401367	1173
6.045435905456543	1209
6.050404787063599	1313
6.055412530899048	1256
6.0604424476623535	1252
6.0654261112213135	1401
6.070385456085205	1427
6.07547926902771	1395
6.080540657043457	1520
6.085516452789307	1588
6.0904552936553955	1525
6.095422983169556	1589
6.1003758907318115	1690
6.1054298877716064	1627
6.110469818115234	1611
6.115507364273071	1721
6.120474100112915	1694
6.1254425048828125	1618
6.130492925643921	1703
6.135472536087036	1740
6.140397310256958	1639
6.145501136779785	1665
6.15053653717041	1741
6.155548810958862	1657
6.160548448562622	1630
6.165542364120483	1718
6.170522689819336	1679
6.175593614578247	1601
6.18066143989563	1682
6.185624122619629	1705
6.190549373626709	1601
6.19559383392334	1629
6.200396299362183	1704
6.2054455280303955	1624
6.210576057434082	1592
6.215649127960205	1680
6.220641374588013	1647
6.225625991821289	1571
6.230709552764893	1655
6.235687494277954	1677
6.240577220916748	1576
6.245636940002441	1611
6.250660419464111	1681
6.255800724029541	1594
6.260748386383057	1576
6.265716791152954	1667
6.270848989486694	1623
6.275801658630371	1555
6.28093695640564	1645
6.285885572433472	1659
6.290848970413208	1558
6.295799970626831	1601
6.300795078277588	1670
6.305752277374268	1589
6.3107590675354	1571
6.3157830238342285	1661
6.320821046829224	1620
6.325977087020874	1549
6.330860376358032	1632
6.335716724395752	1649
6.340750217437744	1551
6.345738649368286	1597
6.3507301807403564	1669
6.355665683746338	1584
6.36064600944519	1564
6.365664482116699	1663
6.370670557022095	1627
6.375727415084839	1551
6.380707502365112	1640
6.38573145866394	1669
6.3907692432403564	1578
6.395700931549072	1625
6.400705337524414	1698
6.405702114105225	1607
6.4107348918914795	1583
6.415708065032959	1670
6.420664310455322	1613
6.425663471221924	1515
6.4306230545043945	1588
6.435656785964966	1614
6.440601825714111	1516
6.44561243057251	1555
6.4505908489227295	1636
6.455716371536255	1549
6.460724353790283	1515
6.465622186660767	1602
6.470619440078735	1561
6.47555685043335	1484
6.480630874633789	1562
6.485716342926025	1586
6.490683555603027	1487
6.495628595352173	1523
6.500612735748291	1594
6.505628347396851	1495
6.510605335235596	1462
6.515637636184692	1457
6.520736217498779	1150
6.525717735290527	742
6.5306174755096436	623
6.535446643829346	715
6.540363073348999	760
6.5452611446380615	723
6.550203800201416	844
6.555116653442383	1247
6.5602052211761475	1957
6.565197467803955	2558
6.570203065872192	2126
6.57526707649231	1465
6.580294132232666	1456
6.585306167602539	1587
6.590340614318848	1502
6.595354080200195	1485
6.600406169891357	1548
6.605399131774902	1481
6.610435962677002	1458
6.615397214889526	1545
6.6204094886779785	1506
6.625433683395386	1421
6.630476713180542	1498
6.635456562042236	1516
6.640493392944336	1408
6.6454856395721436	1438
6.650448560714722	1508
6.655515909194946	1418
6.66056489944458	1388
6.665587663650513	1478
6.670557260513306	1429
6.675571918487549	1347
6.6805760860443115	1426
6.685657739639282	1443
6.690678119659424	1327
6.695648193359375	1353
6.700605392456055	1420
6.705602645874023	1322
6.710641384124756	1279
6.715826749801636	1361
6.720752716064453	1307
6.725772142410278	1219
6.73074746131897	1291
6.735757827758789	1294
6.7408130168914795	1179
6.74583625793457	1218
6.750775098800659	1283
6.755770683288574	1184
6.760791778564453	1166
6.765812635421753	1277
6.77086067199707	1238
6.775933504104614	1178
6.780996799468994	1299
6.7859907150268555	1359
6.791016578674316	1307
6.795970678329468	1406
6.800973176956177	1524
6.805864095687866	1486
6.8108673095703125	1521
6.8159143924713135	1660
6.82101035118103	1634
6.825948476791382	1592
6.8308961391448975	1707
6.835955858230591	1734
6.840948581695557	1639
6.846050500869751	1692
6.851014614105225	1760
6.856019735336304	1672
6.861065149307251	1672
6.866083383560181	1763
6.870965003967285	1701
6.876001834869385	1631
6.881061315536499	1722
6.886009454727173	1734
6.8909265995025635	1633
6.895975351333618	1682
6.900973320007324	1743
6.905998945236206	1648
6.911086082458496	1645
6.916001796722412	1737
6.9209208488464355	1680
6.926088571548462	1608
6.931048154830933	1696
6.9359729290008545	1699
6.940974235534668	1593
6.945984840393066	1647
6.950903654098511	1712
6.955918312072754	1620
6.96088433265686	1608
6.9658753871917725	1701
6.970799922943115	1651
6.975856065750122	1585
6.9809465408325195	1675
6.9859185218811035	1691
6.990849494934082	1589
6.995849370956421	1641
7.000864267349243	1707
7.005886077880859	1612
7.01090407371521	1605
7.015955924987793	1701
7.020963430404663	1647
7.025944471359253	1586
7.0309202671051025	1676
7.035881280899048	1686
7.040959119796753	1586
7.045970916748047	1633
7.050933837890625	1697
7.055922031402588	1610
7.06082820892334	1604
7.065794229507446	1698
7.0707762241363525	1646
7.0758750438690186	1578
7.080860614776611	1667
7.0858659744262695	1684
7.090952157974243	1586
7.095906496047974	1639
7.100889444351196	1703
7.105902671813965	1607
7.111036062240601	1602
7.116020441055298	1697
7.1209187507629395	1642
7.126010179519653	1573
7.13087797164917	1662
7.135887622833252	1677
7.14091682434082	1574
7.146062612533569	1622
7.151179075241089	1681
7.156112194061279	1582
7.16110634803772	1578
7.166054010391235	1677
7.171049356460571	1623
7.176085710525513	1558
7.181125164031982	1651
7.186125993728638	1651
7.191044569015503	1552
7.196038246154785	1611
7.201082468032837	1672
7.206094264984131	1579
7.211101055145264	1579
7.216151714324951	1670
7.221111059188843	1618
7.226121187210083	1558
7.231173753738403	1649
7.236226797103882	1651
7.2412168979644775	1560
7.246232032775879	1625
7.251232385635376	1683
7.256242275238037	1586
7.261252403259277	1591
7.266198635101318	1684
7.271163702011108	1619
7.276211977005005	1560
7.281310558319092	1642
7.286308288574219	1624
7.291259288787842	1516
7.296268463134766	1583
7.301235914230347	1646
7.306220293045044	1553
7.311212539672852	1554
7.316256523132324	1643
7.321177005767822	1582
7.326181888580322	1521
7.331172704696655	1618
7.336189270019531	1614
7.341276407241821	1512
7.346272706985474	1567
7.3512303829193115	1622
7.356221914291382	1523
7.361302137374878	1539
7.366268634796143	1630
7.37122917175293	1556
7.376239776611328	1476
7.3812971115112305	1413
7.3863441944122314	1110
7.391369104385376	670
7.396198511123657	566
7.401043891906738	749
7.405951976776123	788
7.410818576812744	667
7.415799379348755	864
7.420670032501221	1414
7.425719499588013	2131
7.430721282958984	2574
7.435657262802124	2108
7.440718650817871	1495
7.445742607116699	1501
7.450740337371826	1659
7.455702066421509	1570
7.460714817047119	1510
7.465719223022461	1600
7.47071385383606	1562
7.475744962692261	1487
7.480738401412964	1570
7.485751152038574	1579
7.490676641464233	1474
7.495649814605713	1520
7.500629663467407	1586
7.505548000335693	1494
7.510553598403931	1470
7.515592098236084	1560
7.520625352859497	1512
7.525522708892822	1436
7.530471324920654	1519
7.535459756851196	1531
7.540525913238525	1417
7.545496940612793	1449
7.550426006317139	1518
7.5553977489471436	1423
7.560375690460205	1384
7.565398454666138	1473
7.570372581481934	1432
7.575352191925049	1336
7.580441236495972	1408
7.585408687591553	1421
7.590298414230347	1302
7.595282554626465	1313
7.600200414657593	1380
7.605176210403442	1287
7.610212087631226	1247
7.615216970443726	1341
7.62022852897644	1311
7.625197172164917	1229
7.630198955535889	1312
7.635261535644531	1353
7.6402342319488525	1261
7.6452741622924805	1312
7.650248289108276	1426
7.655219078063965	1387
7.660229444503784	1404
7.6652703285217285	1554
7.670251369476318	1570
7.675304651260376	1542
7.680377244949341	1663
7.685368299484253	1729
7.690322399139404	1655
7.695322513580322	1715
7.700299978256226	1813
7.705270767211914	1734
7.710258960723877	1710
7.715294599533081	1817
7.720306634902954	1792
7.725313901901245	1711
7.730326175689697	1792
7.7352917194366455	1821
7.7402732372283936	1718
7.745341062545776	1749
7.750332355499268	1826
7.755403757095337	1746
7.76028299331665	1711
7.765337944030762	1805
7.770354270935059	1763
7.775350093841553	1684
7.780398607254028	1767
7.7854204177856445	1788
7.790435552597046	1682
7.795417308807373	1720
7.800290822982788	1794
7.805301666259766	1704
7.810334205627441	1671
7.815375804901123	1769
7.820350885391235	1735
7.825364828109741	1650
7.830433130264282	1733
7.835429906845093	1760
7.8403472900390625	1656
7.8453898429870605	1687
7.850397109985352	1765
7.855419635772705	1688
7.860510349273682	1663
7.865492820739746	1760
7.8704516887664795	1724
7.875463008880615	1648
7.880499601364136	1732
7.885504961013794	1755
7.890449047088623	1651
7.8955078125	1696
7.900484561920166	1770
7.905500650405884	1682
7.910479784011841	1665
7.915544271469116	1764
7.92046332359314	1724
7.925496816635132	1642
7.930545806884766	1729
7.935528755187988	1750
7.940547227859497	1652
7.945595741271973	1696
7.950577259063721	1768
7.9554970264434814	1679
7.960488557815552	1657
7.965444803237915	1752
7.970527648925781	1708
7.975506067276001	1632
7.980512380599976	1715
7.985480546951294	1739
7.990453720092773	1641
7.995428562164307	1684
8.000450611114502	1750
8.005402088165283	1659
8.010365009307861	1641
8.015329837799072	1735
8.020288228988647	1699
8.025247573852539	1619
8.030276775360107	1703
8.035253047943115	1729
8.0402250289917	1622
8.045310258865356	1656
8.05031967163086	1731
8.055325269699097	1648
8.060236930847168	1616
8.065221548080444	1712
8.070224046707153	1682
8.075212478637695	1601
8.0802583694458	1685
8.085280179977417	1712
8.09026551246643	1605
8.095259666442871	1636
8.100351810455322	1714
8.105310440063477	1636
8.110320329666138	1616
8.115337610244751	1708
8.120360136032104	1672
8.125317811965942	1595
8.130378007888794	1685
8.13534951210022	1717
8.140353202819824	1611
8.145466804504395	1649
8.150410175323486	1729
8.155326128005981	1643
8.160355806350708	1620
8.165292978286743	1701
8.170246124267578	1649
8.175304412841797	1559
8.180363416671753	1642
8.18546748161316	1671
8.190443515777588	1571
8.195406675338745	1616
8.20037031173706	1694
8.205371379852295	1610
8.210409164428711	1580
8.215372800827026	1673
8.220359325408936	1633
8.225362539291382	1547
8.23040246963501	1629
8.235458135604858	1655
8.240379810333252	1553
8.245365619659424	1593
8.250349998474121	1671
8.255346298217773	1579
8.260356187820435	1530
8.26540207862854	1458
8.27034878730774	1131
8.275372505187988	722
8.280303955078125	635
8.285207509994507	780
8.290042161941528	790
8.294916868209839	696
8.299840211868286	880
8.304725885391235	1424
8.309741258621216	2194
8.314857959747314	2642
8.319892406463623	2102
8.32492208480835	1510
8.32988429069519	1560
8.334831237792969	1688
8.339858293533325	1574
8.344873666763306	1544
8.349884033203125	1618
8.35482144355774	1561
8.359830141067505	1517
8.364796876907349	1608
8.369829654693604	1581
8.374924182891846	1480
8.38000750541687	1551
8.385143756866455	1591
8.39022946357727	1483
8.395097255706787	1494
8.400090456008911	1572
8.405093431472778	1493
8.410106420516968	1457
8.415079355239868	1544
8.419974565505981	1508
8.425016403198242	1409
8.430020570755005	1482
8.435011386871338	1511
8.439902544021606	1396
8.445012331008911	1406
8.450002908706665	1483
8.455081939697266	1396
8.460078477859497	1339
8.464991331100464	1417
8.46999716758728	1386
8.474990606307983	1281
8.48000454902649	1334
8.48490023612976	1356
8.489852666854858	1241
8.494855880737305	1250
8.499900579452515	1338
8.504889011383057	1269
8.509926795959473	1227
8.514954566955566	1319
8.519977331161499	1305
8.524998664855957	1230
8.529926061630249	1328
8.534911155700684	1405
8.539896011352539	1350
8.545064449310303	1428
8.55007290840149	1567
8.555009365081787	1532
8.559950828552246	1530
8.564997911453247	1672
8.570049285888672	1682
8.575039386749268	1626
8.580061912536621	1728
8.584933280944824	1776
8.589904308319092	1684
8.594886064529419	1719
8.599902868270874	1822
8.604925394058228	1751
8.610001802444458	1702
8.614991426467896	1790
8.620025157928467	1773
8.625093698501587	1692
8.630007982254028	1762
8.635030269622803	1800
8.640016794204712	1700
8.64511251449585	1724
8.65025019645691	1803
8.65521502494812	1718
8.660202980041504	1688
8.665292501449585	1782
8.670278549194336	1742
8.675368547439575	1658
8.680414199829102	1739
8.685515642166138	1762
8.690432786941528	1663
8.695350408554077	1698
8.700430393218994	1769
8.705397129058838	1682
8.710590124130249	1662
8.71560263633728	1756
8.720685720443726	1707
8.725656509399414	1645
8.730623245239258	1729
8.735679626464844	1739
8.74067735671997	1635
8.745744228363037	1689
8.75079083442688	1755
8.755850315093994	1659
8.760855436325073	1654
8.765903234481812	1755
8.770910739898682	1702
8.775837898254395	1635
8.780858278274536	1724
8.785900592803955	1728
8.790858507156372	1631
8.7958345413208	1685
8.800869464874268	1752
8.805891513824463	1658
8.810882091522217	1646
8.815830707550049	1742
8.820890188217163	1689
8.825835704803467	1620
8.830804109573364	1703
8.835840702056885	1715
8.840816974639893	1622
8.845790386199951	1672
8.850868225097656	1730
8.855828046798706	1642
8.860756874084473	1644
8.865827322006226	1738
8.870840311050415	1679
8.875761985778809	1607
8.880809307098389	1704
8.885939836502075	1717
8.890925884246826	1626
8.895855188369751	1685
8.90090823173523	1738
8.905965566635132	1643
8.910934686660767	1642
8.916078567504883	1741
8.921099662780762	1673
8.926124334335327	1597
8.931073665618896	1677
8.936077356338501	1669
8.941086292266846	1572
8.946059465408325	1641
8.951062202453613	1715
8.956024408340454	1622
8.961082696914673	1619
8.966097354888916	1700
8.971058368682861	1631
8.976013422012329	1570
8.981084108352661	1661
8.986055850982666	1653
8.991002559661865	1558
8.99607801437378	1619
9.001136302947998	1670
9.006218433380127	1572
9.011128902435303	1567
9.01619291305542	1634
9.021296977996826	1524
9.026340246200562	1269
9.031332015991211	1077
9.036360263824463	788
9.04125189781189	569
9.046244144439697	717
9.051185131072998	856
9.056046485900879	661
9.060901165008545	926
9.065805912017822	1859
9.070828676223755	2622
9.075906753540039	2417
9.080925226211548	1823
9.085981130599976	1557
9.090989589691162	1570
9.096053838729858	1674
9.101030111312866	1656
9.10605525970459	1509
9.110988140106201	1520
9.116059064865112	1632
9.121119737625122	1572
9.126034498214722	1495
9.131048679351807	1572
9.136026382446289	1575
9.14109992980957	1480
9.146056413650513	1528
9.151094675064087	1574
9.156105518341064	1477
9.161133289337158	1475
9.166122198104858	1560
9.17123031616211	1485
9.176198482513428	1420
9.181226253509521	1509
9.186213254928589	1503
9.191149950027466	1398
9.196124792098999	1451
9.201033115386963	1491
9.206095695495605	1384
9.211219787597656	1378
9.216262102127075	1450
9.221170902252197	1368
9.226133823394775	1296
9.231184005737305	1375
9.236121654510498	1358
9.241131782531738	1246
9.246129989624023	1293
9.251134872436523	1336
9.255990266799927	1230
9.261025667190552	1225
9.26596975326538	1325
9.270976781845093	1272
9.276000499725342	1209
9.28098177909851	1317
9.285910606384277	1345
9.29094648361206	1274
9.295949697494507	1377
9.30097508430481	1488
9.305981874465942	1436
9.311034440994263	1480
9.316103219985962	1621
9.32118535041809	1614
9.326204776763916	1606
9.33111834526062	1722
9.336137771606445	1738
9.341142892837524	1661
9.346036672592163	1740
9.351010799407959	1801
9.3560209274292	1700
9.361052751541138	1710
9.366074085235596	1811
9.371083974838257	1755
9.376099348068237	1703
9.381108283996582	1794
9.386256456375122	1789
9.391283512115479	1693
9.396205425262451	1758
9.401215076446533	1804
9.406270265579224	1703
9.411260843276978	1708
9.416260719299316	1790
9.421333074569702	1719
9.426299095153809	1667
9.431227922439575	1754
9.436266899108887	1739
9.441309690475464	1648
9.446292161941528	1710
9.451306104660034	1751
9.45632815361023	1656
9.461309671401978	1669
9.466324806213379	1749
9.471309661865234	1677
9.47643518447876	1626
9.481541872024536	1725
9.486510992050171	1708
9.49148416519165	1621
9.496465682983398	1689
9.501512050628662	1726
9.50657844543457	1627
9.51162338256836	1648
9.5166015625	1730
9.521618604660034	1656
9.526684284210205	1623
9.531678199768066	1718
9.536671161651611	1695
9.541730403900146	1610
9.546746253967285	1684
9.551838397979736	1720
9.556845903396606	1625
9.561784267425537	1655
9.566780090332031	1728
9.571698427200317	1655
9.576706647872925	1630
9.58168888092041	1728
9.586628913879395	1698
9.591599941253662	1612
9.596611022949219	1691
9.60169768333435	1730
9.606669187545776	1635
9.611651182174683	1676
9.616596937179565	1764
9.621637344360352	1686
9.626683473587036	1660
9.631678342819214	1755
9.636612176895142	1731
9.641611337661743	1643
9.64669394493103	1702
9.651737451553345	1708
9.656695365905762	1592
9.661682367324829	1622
9.666691303253174	1708
9.671621561050415	1635
9.67663836479187	1601
9.681729078292847	1698
9.686772346496582	1662
9.691780090332031	1571
9.696810245513916	1644
9.701768398284912	1676
9.706783056259155	1578
9.711775302886963	1608
9.716817378997803	1681
9.721840620040894	1597
9.726872205734253	1567
9.73186182975769	1647
9.73684549331665	1607
9.741856336593628	1389
9.746976852416992	1200
9.75189995765686	933
9.756745100021362	648
9.761658191680908	712
9.766546964645386	929
9.77144718170166	792
9.776397943496704	784
9.78131103515625	1435
9.786298274993896	2275
9.791268348693848	2579
9.79638123512268	2112
9.801349639892578	1638
9.806416034698486	1528
9.811464309692383	1645
9.816495895385742	1698
9.821501016616821	1558
9.826456785202026	1507
9.831406831741333	1622
9.836350440979004	1617
9.841382265090942	1514
9.846362829208374	1570
9.851370573043823	1614
9.856345176696777	1517
9.86135458946228	1530
9.86632776260376	1614
9.87130069732666	1535
9.876315832138062	1481
9.881394147872925	1573
9.886396884918213	1555
9.891333103179932	1460
9.89628267288208	1522
9.9012451171875	1559
9.906205177307129	1448
9.911208152770996	1450
9.91623067855835	1530
9.92117977142334	1451
9.926178693771362	1389
9.93117642402649	1468
9.936205625534058	1447
9.941099643707275	1335
9.946126699447632	1377
9.951125383377075	1415
9.956146478652954	1306
9.961098194122314	1294
9.96606707572937	1367
9.97118091583252	1295
9.976181983947754	1236
9.981130361557007	1327
9.986210823059082	1320
9.991214752197266	1227
9.996233701705933	1304
10.001275300979614	1370
10.0062096118927	1292
10.011209726333618	1342
10.016204357147217	1487
10.02110481262207	1482
10.026179790496826	1482
10.031177282333374	1625
10.036209344863892	1663
10.041212797164917	1611
10.04624319076538	1710
10.0512375831604	1786
10.056192636489868	1707
10.061208963394165	1736
10.06617283821106	1834
10.071167230606079	1771
10.076101064682007	1728
10.08112621307373	1827
10.08613395690918	1828
10.091075897216797	1732
10.096174240112305	1792
10.101208686828613	1843
10.106173753738403	1745
10.111181735992432	1754
10.116240501403809	1840
10.121325969696045	1765
10.12627363204956	1715
10.131298542022705	1806
10.136259317398071	1792
10.14121150970459	1703
10.14621353149414	1766
10.1512451171875	1810
10.156225204467773	1707
10.161226511001587	1720
10.166227579116821	1805
10.171199798583984	1729
10.176269054412842	1677
10.18138074874878	1773
10.186307191848755	1759
10.191240549087524	1665
10.196256399154663	1732
10.201046228408813	1774
10.206060647964478	1677
10.211114645004272	1689
10.216030836105347	1778
10.221069574356079	1711
10.226082801818848	1661
10.23116683959961	1753
10.236130714416504	1743
10.241206169128418	1654
10.246216535568237	1724
10.25120759010315	1765
10.256077527999878	1664
10.261101245880127	1678
10.266066789627075	1769
10.271003723144531	1704
10.276052474975586	1650
10.281134605407715	1744
10.286067247390747	1743
10.291037321090698	1640
10.296093702316284	1696
10.300899267196655	1756
10.305954456329346	1664
10.311118841171265	1667
10.316038370132446	1750
10.321060419082642	1691
10.326057195663452	1640
10.331001996994019	1732
10.335953712463379	1724
10.341012477874756	1621
10.346042156219482	1684
10.351030349731445	1738
10.356087923049927	1644
10.361107110977173	1656
10.366122007369995	1740
10.371227264404297	1674
10.376245737075806	1632
10.381194114685059	1732
10.386117935180664	1729
10.391202211380005	1631
10.396218299865723	1695
10.401268243789673	1738
10.40627646446228	1637
10.411323308944702	1656
10.416334867477417	1722
10.421316862106323	1634
10.426361799240112	1582
10.431355476379395	1669
10.436411142349243	1653
10.441335201263428	1580
10.446361541748047	1661
10.4513840675354	1699
10.456344842910767	1593
10.461412191390991	1606
10.46629023551941	1686
10.471374034881592	1610
10.476325273513794	1565
10.481451988220215	1658
10.486458778381348	1636
10.491529941558838	1547
10.496544122695923	1626
10.501452207565308	1660
10.50650429725647	1549
10.511574029922485	1558
10.516532897949219	1460
10.521485328674316	1077
10.526483058929443	708
10.531376361846924	690
10.536265134811401	818
10.54121732711792	809
10.546086549758911	771
10.550952911376953	1015
10.555932521820068	1553
10.560905933380127	2332
10.565927028656006	2622
10.570863723754883	1973
10.5759117603302	1464
10.580938339233398	1570
10.58589220046997	1664
10.590862512588501	1555
10.59585690498352	1577
10.600836992263794	1629
10.605864524841309	1538
10.610814571380615	1541
10.615835666656494	1627
10.620863437652588	1558
10.625885248184204	1494
10.630884170532227	1588
10.635917663574219	1586
10.640887260437012	1488
10.645920991897583	1545
10.650923728942871	1589
10.655856370925903	1485
10.660783767700195	1486
10.665803909301758	1569
10.670809745788574	1500
10.675787925720215	1436
10.680886030197144	1523
10.685868978500366	1516
10.690922498703003	1405
10.695876359939575	1454
10.700805902481079	1501
10.705805540084839	1393
10.710813522338867	1383
10.715818643569946	1461
10.720849752426147	1381
10.725850582122803	1302
10.730715274810791	1384
10.735713720321655	1371
10.740669012069702	1254
10.745711088180542	1303
10.750611305236816	1370
10.755573034286499	1271
10.760560750961304	1259
10.765556573867798	1361
10.770589113235474	1319
10.775617599487305	1265
10.78063154220581	1388
10.785645723342896	1441
10.790610551834106	1392
10.795580625534058	1505
10.80053186416626	1624
10.80556321144104	1580
10.810563802719116	1622
10.815560340881348	1763
10.82062840461731	1750
10.825643062591553	1711
10.830606937408447	1821
10.835725545883179	1844
10.840682983398438	1763
10.845690727233887	1826
10.850656747817993	1891
10.855637311935425	1797
10.86066222190857	1796
10.865651845932007	1893
10.870555400848389	1839
10.875624179840088	1777
10.880595207214355	1873
10.885617733001709	1882
10.89067006111145	1772
10.895660638809204	1826
10.900659322738647	1892
10.905712842941284	1794
10.910739660263062	1787
10.915809869766235	1876
10.920870304107666	1818
10.925890445709229	1763
10.930857419967651	1860
10.935911178588867	1857
10.940948247909546	1758
10.945924758911133	1820
10.950886249542236	1877
10.95583987236023	1784
10.960795879364014	1784
10.965761423110962	1874
10.970707416534424	1820
10.97567367553711	1761
10.980667114257812	1853
10.985791206359863	1860
10.990734100341797	1767
10.995757818222046	1830
11.000703573226929	1891
11.005737543106079	1796
11.010769367218018	1792
11.015817165374756	1889
11.020841598510742	1826
11.02578616142273	1768
11.030780553817749	1864
11.035784244537354	1868
11.040711879730225	1768
11.045695543289185	1829
11.050822019577026	1895
11.05585265159607	1800
11.060840845108032	1802
11.06577730178833	1900
11.07081127166748	1836
11.075881481170654	1780
11.080860376358032	1875
11.085988759994507	1874
11.091037034988403	1778
11.09601354598999	1838
11.101020812988281	1891
11.106033325195312	1790
11.110933065414429	1796
11.115993976593018	1892
11.120997428894043	1826
11.125939846038818	1770
11.13095235824585	1865
11.135953664779663	1866
11.14103388786316	1767
11.146016359329224	1833
11.15099024772644	1890
11.155981540679932	1796
11.160982370376587	1814
11.165960550308228	1905
11.170920133590698	1826
11.17593240737915	1772
11.180964231491089	1868
11.185906648635864	1871
11.190907716751099	1755
11.195881366729736	1800
11.200778722763062	1854
11.205800533294678	1751
11.210881233215332	1750
11.215820789337158	1847
11.220793724060059	1799
11.225850343704224	1739
11.230883121490479	1827
11.235835075378418	1823
11.240915060043335	1720
11.245958089828491	1780
11.250961780548096	1833
11.255990028381348	1732
11.261044025421143	1735
11.26606035232544	1822
11.270930290222168	1759
11.275902509689331	1706
11.28097915649414	1794
11.285930871963501	1780
11.291011571884155	1551
11.296093463897705	1348
11.300973415374756	1074
11.306032180786133	767
11.311020851135254	833
11.315951347351074	1036
11.320871114730835	868
11.325728178024292	908
11.330629825592041	1603
11.335611820220947	2408
11.340585470199585	2700
11.34567666053772	2263
11.350607872009277	1790
11.355611085891724	1631
11.360622644424438	1717
11.365530967712402	1821
11.370460748672485	1722
11.375504970550537	1635
11.381063222885132	1734
11.3861985206604	1747
11.390472412109375	1634
11.39545202255249	1670
11.400447130203247	1731
11.405474662780762	1640
11.410508155822754	1619
11.415407180786133	1701
11.420405387878418	1647
11.425376415252686	1580
11.43036937713623	1660
11.435467958450317	1661
11.440434455871582	1552
11.445471286773682	1592
11.450458765029907	1648
11.455514669418335	1544
11.46043348312378	1522
11.465386390686035	1604
11.47036337852478	1545
11.475407361984253	1465
11.480491638183594	1538
11.485527276992798	1532
11.490642786026001	1412
11.49558424949646	1452
11.500581502914429	1492
11.50558853149414	1379
11.510626554489136	1360
11.515704154968262	1438
11.520673274993896	1365
11.525679588317871	1296
11.530719995498657	1385
11.535723209381104	1388
11.540748596191406	1285
11.545734643936157	1353
11.550694704055786	1425
11.555761337280273	1350
11.560770750045776	1384
11.565708637237549	1522
11.57074522972107	1516
11.575753211975098	1511
11.580744981765747	1650
11.585832118988037	1690
11.590807676315308	1634
11.595803499221802	1728
11.600871801376343	1805
11.605803489685059	1725
11.61074447631836	1742
11.615727186203003	1842
11.620795011520386	1781
11.625783920288086	1727
11.630748271942139	1818
11.63582158088684	1809
11.640826225280762	1716
11.645933151245117	1787
11.650951147079468	1833
11.655921459197998	1732
11.660845518112183	1738
11.665840864181519	1826
11.670858144760132	1754
11.675867319107056	1698
11.680899858474731	1792
11.685844659805298	1782
11.690808773040771	1678
11.69576120376587	1738
11.700841903686523	1783
11.705844402313232	1678
11.710911750793457	1683
11.715913772583008	1769
11.720877170562744	1691
11.725900173187256	1641
11.730919361114502	1738
11.735911846160889	1726
11.740901947021484	1624
11.74598741531372	1686
11.751041412353516	1734
11.756073951721191	1636
11.761077880859375	1651
11.76606822013855	1734
11.771034955978394	1660
11.775975465774536	1613
11.781059503555298	1702
11.785984754562378	1689
11.790951490402222	1595
11.795942544937134	1664
11.80097246170044	1711
11.805977821350098	1611
11.81095838546753	1620
11.815974235534668	1710
11.821033477783203	1640
11.82603645324707	1584
11.830979824066162	1675
11.835979223251343	1660
11.841018199920654	1565
11.845980167388916	1640
11.8510262966156	1691
11.856049060821533	1584
11.861095428466797	1598
11.866047620773315	1683
11.871129751205444	1613
11.876049518585205	1568
11.881180047988892	1658
11.886141300201416	1637
11.891179323196411	1549
11.896144151687622	1624
11.901036500930786	1664
11.905999422073364	1561
11.911056756973267	1574
11.916009664535522	1655
11.920990943908691	1584
11.925984382629395	1542
11.9309561252594	1647
11.935932397842407	1640
11.94092583656311	1540
11.945960283279419	1603
11.950936079025269	1653
11.955918550491333	1556
11.960931301116943	1549
11.965963125228882	1615
11.970846891403198	1541
11.975972175598145	1489
11.981147050857544	1589
11.986083030700684	1576
11.991084814071655	1488
11.996102571487427	1563
12.00119137763977	1601
12.006191492080688	1491
12.011272668838501	1511
12.016268968582153	1588
12.021287441253662	1501
12.026352405548096	1467
12.031335830688477	1567
12.036366939544678	1533
12.041396856307983	1449
12.04637336730957	1525
12.051438808441162	1555
12.056432247161865	1452
12.061339378356934	1360
12.066283226013184	1175
12.071301937103271	773
12.07621717453003	518
12.081217527389526	640
12.08608627319336	713
12.090885877609253	505
12.095781087875366	621
12.100727319717407	1305
12.105719804763794	2039
12.110717058181763	2473
12.11581826210022	2089
12.120880126953125	1486
12.125915288925171	1372
12.130890130996704	1549
12.135793924331665	1532
12.140795946121216	1385
12.14587116241455	1442
12.150834798812866	1508
12.155865907669067	1409
12.160850524902344	1406
12.165863990783691	1486
12.170807123184204	1417
12.175736427307129	1352
12.180820226669312	1438
12.185842752456665	1433
12.190844774246216	1335
12.19585657119751	1392
12.20086669921875	1434
12.205835342407227	1325
12.210864543914795	1327
12.215895175933838	1413
12.220892906188965	1333
12.22583818435669	1271
12.230886697769165	1359
12.235934257507324	1338
12.2409987449646	1238
12.24601674079895	1296
12.251048564910889	1327
12.256203889846802	1204
12.26118803024292	1209
12.26612401008606	1287
12.271106719970703	1196
12.27619218826294	1135
12.281251192092896	1217
12.286145448684692	1194
12.291166305541992	1088
12.296191453933716	1152
12.301121711730957	1188
12.30608868598938	1084
12.311152458190918	1110
12.316164493560791	1213
12.321160078048706	1156
12.326111793518066	1129
12.331082105636597	1257
12.336057901382446	1290
12.341077089309692	1248
12.346019506454468	1374
12.351019382476807	1476
12.35594630241394	1422
12.360939025878906	1471
12.365909814834595	1587
12.370974779129028	1545
12.375965118408203	1527
12.38101863861084	1636
12.385993003845215	1621
12.390965938568115	1536
12.395910501480103	1614
12.400937557220459	1660
12.406003952026367	1565
12.41095757484436	1577
12.415999174118042	1668
12.421040773391724	1597
12.4261155128479	1555
12.431113481521606	1649
12.436121463775635	1635
12.441094875335693	1545
12.446072340011597	1605
12.450991153717041	1644
12.455995082855225	1545
12.460994243621826	1555
12.465951204299927	1642
12.470888137817383	1569
12.475878477096558	1518
12.4809091091156	1604
12.485896825790405	1594
12.490903615951538	1504
12.495957851409912	1569
12.50092887878418	1607
12.505930662155151	1511
12.510884046554565	1536
12.515902042388916	1625
12.520981550216675	1548
12.526009559631348	1505
12.53095006942749	1591
12.53600811958313	1576
12.541035652160645	1490
12.546072483062744	1560
12.551109075546265	1601
12.556188821792603	1501
12.561187267303467	1529
12.56620454788208	1609
12.571258783340454	1531
12.57632827758789	1497
12.581453800201416	1588
12.586472034454346	1563
12.591412544250488	1495
12.59636378288269	1576
12.60129690170288	1601
12.606321811676025	1501
12.611382484436035	1536
12.616414308547974	1613
12.621441125869751	1539
12.626471281051636	1516
12.631456136703491	1616
12.636477947235107	1590
12.641500473022461	1523
12.646504640579224	1606
12.651468276977539	1639
12.656464099884033	1538
12.66145920753479	1571
12.666448593139648	1648
12.67138671875	1554
12.676372051239014	1499
12.681464672088623	1581
12.686462163925171	1554
12.691413640975952	1485
12.696481227874756	1567
12.701412439346313	1600
12.706433534622192	1503
12.711443901062012	1527
12.71657657623291	1587
12.721505641937256	1505
12.726523637771606	1484
12.731446266174316	1570
12.736440420150757	1527
12.741486549377441	1452
12.746507167816162	1530
12.751550197601318	1559
12.756532669067383	1455
12.76161527633667	1478
12.766586303710938	1477
12.771568298339844	1168
12.776670932769775	875
12.781622886657715	733
12.786522388458252	607
12.791431665420532	588
12.796358585357666	674
12.801235437393188	665
12.806079387664795	993
12.810977458953857	1868
12.816117525100708	2642
12.821080923080444	2247
12.826078176498413	1563
12.831047296524048	1496
12.83606219291687	1592
12.841060400009155	1516
12.846152305603027	1511
12.851224660873413	1516
12.856079578399658	1437
12.86111068725586	1474
12.866098165512085	1541
12.87118411064148	1451
12.876233100891113	1414
12.881224393844604	1509
12.886266708374023	1479
12.891283512115479	1391
12.896296977996826	1459
12.901315689086914	1480
12.906316757202148	1371
12.911295890808105	1400
12.916288375854492	1477
12.921290159225464	1391
12.926306247711182	1349
12.93130898475647	1438
12.936341762542725	1401
12.941372632980347	1312
12.9463210105896	1381
12.951364278793335	1401
12.956359148025513	1284
12.961394548416138	1298
12.966431856155396	1360
12.971352577209473	1262
12.976387023925781	1213
12.981452465057373	1296
12.986444473266602	1254
12.991354703903198	1164
12.996331214904785	1232
13.001343488693237	1260
13.006410360336304	1152
13.011390209197998	1188
13.016414403915405	1277
13.021408319473267	1199
13.026440858840942	1182
13.031394243240356	1303
13.036391496658325	1307
13.041347980499268	1271
13.046327352523804	1404
13.051410675048828	1489
13.056408166885376	1437
13.06131887435913	1514
13.066354990005493	1639
13.071328163146973	1593
13.076347589492798	1591
13.081377029418945	1707
13.086342573165894	1694
13.091402292251587	1631
13.096426248550415	1723
13.10141372680664	1757
13.106388807296753	1664
13.111393690109253	1703
13.116423845291138	1781
13.1214439868927	1696
13.12642788887024	1670
13.131428480148315	1763
13.13644552230835	1722
13.141418695449829	1644
13.146429777145386	1725
13.151462078094482	1751
13.156495094299316	1650
13.161510467529297	1687
13.166476726531982	1754
13.171510696411133	1663
13.176592588424683	1644
13.181572675704956	1737
13.186563491821289	1696
13.191542625427246	1620
13.19657278060913	1702
13.201596975326538	1717
13.206520795822144	1614
13.21157717704773	1657
13.216546773910522	1732
13.22151517868042	1650
13.226514339447021	1628
13.231457710266113	1716
13.236536979675293	1675
13.241515398025513	1604
13.246529579162598	1687
13.251585006713867	1708
13.256601810455322	1610
13.261587858200073	1660
13.266558408737183	1728
13.271564483642578	1637
13.276609420776367	1624
13.281615257263184	1720
13.286639213562012	1675
13.29167652130127	1603
13.296643495559692	1695
13.301639318466187	1716
13.306743144989014	1614
13.311706066131592	1659
13.316684007644653	1724
13.32177996635437	1639
13.326767206192017	1635
13.331833600997925	1730
13.336840867996216	1676
13.3418607711792	1615
13.346846103668213	1707
13.35181450843811	1733
13.356813907623291	1645
13.361838579177856	1702
13.366708040237427	1766
13.37168836593628	1677
13.376697778701782	1661
13.381634950637817	1756
13.386704683303833	1706
13.391690731048584	1608
13.396562814712524	1664
13.40173864364624	1677
13.406713485717773	1592
13.411699056625366	1645
13.416733503341675	1708
13.421727657318115	1625
13.42671537399292	1612
13.431859970092773	1693
13.436815023422241	1635
13.441807985305786	1571
13.446884870529175	1655
13.451889038085938	1660
13.45696210861206	1562
13.461997985839844	1617
13.466880321502686	1674
13.471840381622314	1572
13.476871013641357	1549
13.481882810592651	1589
13.48691463470459	1316
13.491922855377197	961
13.496817350387573	794
13.501739501953125	742
13.506627082824707	755
13.51153039932251	819
13.516535997390747	842
13.521362781524658	1127
13.526391983032227	1877
13.531485080718994	2661
13.536540985107422	2373
13.541514158248901	1655
13.54649543762207	1549
13.551507472991943	1677
13.556533575057983	1601
13.561514616012573	1584
13.56658148765564	1623
13.571512699127197	1549
13.576550960540771	1542
13.581620216369629	1628
13.586564779281616	1574
13.591488599777222	1497
13.596473932266235	1582
13.601414203643799	1603
13.60641598701477	1498
13.611424684524536	1532
13.616434574127197	1595
13.621487617492676	1501
13.626459121704102	1479
13.631514072418213	1567
13.636557817459106	1519
13.641496181488037	1441
13.646470785140991	1517
13.65148401260376	1526
13.656529664993286	1415
13.661464214324951	1450
13.666511297225952	1512
13.67148756980896	1417
13.67653751373291	1385
13.681564331054688	1465
13.686586618423462	1401
13.691639423370361	1308
13.696710348129272	1378
13.701863527297974	1368
13.706794261932373	1259
13.711805582046509	1306
13.716856002807617	1366
13.721864938735962	1268
13.726859331130981	1261
13.73186206817627	1353
13.736802816390991	1305
13.741886615753174	1256
13.747069835662842	1376
13.752083539962769	1412
13.7570219039917	1364
13.762043952941895	1475
13.767029523849487	1581
13.772060632705688	1541
13.777158737182617	1592
13.782252311706543	1726
13.787132978439331	1703
13.79207158088684	1675
13.797117710113525	1782
13.802165269851685	1790
13.80715298652649	1708
13.812283754348755	1786
13.817262649536133	1846
13.822275638580322	1746
13.82726788520813	1753
13.832233905792236	1841
13.837186574935913	1788
13.842120885848999	1739
13.847151756286621	1828
13.852083206176758	1827
13.857051849365234	1724
13.862188816070557	1784
13.867182493209839	1828
13.872166633605957	1720
13.877174854278564	1724
13.882266759872437	1815
13.887216567993164	1754
13.892195463180542	1700
13.897193670272827	1783
13.902215480804443	1775
13.907182455062866	1676
13.912256479263306	1743
13.91722846031189	1791
13.922228574752808	1689
13.927309036254883	1699
13.93230938911438	1784
13.937259674072266	1716
13.942265033721924	1671
13.947274446487427	1769
13.952264785766602	1755
13.957251071929932	1663
13.962316036224365	1734
13.967271089553833	1776
13.972264766693115	1677
13.97730278968811	1693
13.982346296310425	1783
13.987319231033325	1716
13.992289066314697	1664
13.997213125228882	1755
14.002214908599854	1748
14.00722360610962	1660
14.012119054794312	1729
14.01711654663086	1780
14.022059440612793	1679
14.0270516872406	1681
14.032026529312134	1773
14.03703761100769	1710
14.042115688323975	1653
14.047293424606323	1750
14.052383661270142	1742
14.057268619537354	1654
14.062246322631836	1725
14.067248582839966	1775
14.072255373001099	1671
14.077271699905396	1685
14.082321166992188	1773
14.087370872497559	1706
14.092430591583252	1678
14.097466945648193	1779
14.102483034133911	1753
14.107563972473145	1664
14.11253833770752	1742
14.117539644241333	1781
14.122586011886597	1683
14.127568244934082	1693
14.13271450996399	1747
14.137637853622437	1646
14.142696857452393	1612
14.147641658782959	1723
14.152612209320068	1704
14.157578468322754	1616
14.162662744522095	1692
14.167595386505127	1719
14.1725754737854	1615
14.177563905715942	1634
14.182573318481445	1713
14.18756628036499	1636
14.192598581314087	1595
14.197563409805298	1687
14.202534914016724	1663
14.20751428604126	1575
14.212426662445068	1646
14.217442750930786	1679
14.222462892532349	1538
14.227490663528442	1348
14.232467412948608	1129
14.237422943115234	760
14.242375612258911	629
14.247236728668213	851
14.252228260040283	852
14.257031917572021	681
14.261977195739746	1104
14.266952753067017	1908
14.271961450576782	2530
14.277068138122559	2427
14.28205132484436	1875
14.28702974319458	1528
14.292006015777588	1539
14.29697322845459	1688
14.301941394805908	1655
14.3069486618042	1528
14.312103986740112	1595
14.317147493362427	1659
14.322076320648193	1552
14.327020168304443	1544
14.331999063491821	1626
14.337134838104248	1558
14.342097759246826	1502
14.347115516662598	1591
14.352247476577759	1573
14.357226371765137	1476
14.362220287322998	1539
14.367181539535522	1577
14.372224569320679	1468
14.377220869064331	1477
14.382237911224365	1556
14.387210130691528	1475
14.392242193222046	1420
14.39708399772644	1506
14.402110576629639	1492
14.407072305679321	1386
14.412119626998901	1437
14.417121171951294	1478
14.422154426574707	1362
14.427178621292114	1352
14.432132720947266	1425
14.437156915664673	1337
14.442293882369995	1271
14.447339057922363	1353
14.452306270599365	1332
14.457344055175781	1233
14.462371826171875	1297
14.467200994491577	1345
14.47223424911499	1244
14.477281093597412	1260
14.482280969619751	1360
14.487273216247559	1313
14.49229383468628	1301
14.49733829498291	1439
14.50226879119873	1477
14.507259130477905	1442
14.512273073196411	1567
14.517237663269043	1660
14.52220869064331	1604
14.527236938476562	1654
14.532310009002686	1769
14.537342071533203	1716
14.542370796203613	1688
14.547406196594238	1793
14.55244755744934	1786
14.557422637939453	1702
14.562372922897339	1773
14.567253589630127	1816
14.572343349456787	1718
14.577388525009155	1746
14.582427263259888	1831
14.587470531463623	1751
14.592571496963501	1708
14.597521305084229	1805
14.602569818496704	1779
14.607551336288452	1688
14.612610816955566	1764
14.617522478103638	1798
14.622438192367554	1691
14.627454996109009	1708
14.632469177246094	1796
14.637367963790894	1722
14.642412185668945	1681
14.6474449634552	1773
14.652498245239258	1744
14.657555103302002	1656
14.662508010864258	1731
14.667493343353271	1765
14.672514915466309	1663
14.677568435668945	1692
14.682564735412598	1770
14.687572717666626	1687
14.692600727081299	1655
14.697621583938599	1751
14.702674388885498	1718
14.707683086395264	1637
14.712684154510498	1721
14.717666864395142	1750
14.722663879394531	1650
14.727620840072632	1684
14.732560396194458	1759
14.73757004737854	1684
14.742648363113403	1659
14.747727632522583	1753
14.752828359603882	1711
14.75783920288086	1638
14.762917280197144	1724
14.767871856689453	1743
14.77286672592163	1647
14.777886390686035	1690
14.78286361694336	1759
14.787822246551514	1671
14.792786359786987	1654
14.797784805297852	1752
14.802802801132202	1714
14.807812690734863	1638
14.812800407409668	1724
14.817798137664795	1753
14.822713851928711	1650
14.827659606933594	1685
14.83266544342041	1766
14.837692975997925	1693
14.842673063278198	1675
14.847715139389038	1773
14.852725267410278	1740
14.857675075531006	1661
14.862638711929321	1735
14.86749529838562	1771
14.872542381286621	1664
14.877562284469604	1667
14.882585525512695	1723
14.887585878372192	1651
14.89260482788086	1628
14.897605419158936	1723
14.90258240699768	1699
14.90773320198059	1621
14.912579536437988	1698
14.917554378509521	1721
14.922517776489258	1608
14.92753291130066	1638
14.93256688117981	1721
14.937548398971558	1641
14.942460298538208	1603
14.947433710098267	1700
14.952380180358887	1679
14.957484483718872	1590
14.962411642074585	1658
14.967379570007324	1680
14.972377300262451	1403
14.977383613586426	1135
14.982366561889648	917
14.987267971038818	712
14.992141962051392	744
14.99700927734375	872
15.001956701278687	785
15.006844282150269	968
15.011717557907104	1728
15.016750812530518	2575
15.021786212921143	2554
15.0268235206604	1922
15.03181791305542	1648
15.036813259124756	1628
15.041792631149292	1633
15.046786069869995	1701
15.051883220672607	1665
15.056798696517944	1575
15.061804294586182	1646
15.066752195358276	1696
15.071742057800293	1591
15.07687497138977	1589
15.081855297088623	1675
15.086863994598389	1611
15.092015504837036	1554
15.096905946731567	1644
15.10187816619873	1627
15.10688304901123	1530
15.111911296844482	1590
15.117019653320312	1636
15.12188172340393	1534
15.127083539962769	1542
15.13205885887146	1620
15.137040138244629	1543
15.142102241516113	1484
15.147121906280518	1570
15.152094841003418	1553
15.157047986984253	1445
15.162136554718018	1506
15.167078495025635	1533
15.172064304351807	1416
15.177206993103027	1416
15.18218183517456	1487
15.187264680862427	1401
15.19226598739624	1338
15.197301864624023	1426
15.20220398902893	1403
15.207294225692749	1308
15.212319374084473	1388
15.217375993728638	1427
15.222287893295288	1333
15.227309942245483	1368
15.23243761062622	1473
15.237461805343628	1426
15.242511749267578	1439
15.24757695198059	1590
15.252568244934082	1615
15.257546186447144	1582
15.262608289718628	1709
15.267461061477661	1782
15.272491216659546	1717
15.277629852294922	1785
15.282619714736938	1885
15.287540435791016	1816
15.292562246322632	1793
15.29751706123352	1905
15.30250096321106	1882
15.307549953460693	1796
15.312651872634888	1879
15.317656755447388	1918
15.322609424591064	1818
15.327620267868042	1846
15.33254337310791	1920
15.337604999542236	1839
15.342623710632324	1811
15.34775447845459	1904
15.352774143218994	1862
15.357686519622803	1778
15.362791299819946	1859
15.367762804031372	1881
15.37281060218811	1784
15.377867221832275	1826
15.382910966873169	1889
15.387893438339233	1792
15.392986059188843	1770
15.398000955581665	1870
15.403014421463013	1822
15.408017873764038	1748
15.413026571273804	1831
15.418013572692871	1846
15.423024892807007	1746
15.428064584732056	1793
15.433054447174072	1862
15.438056707382202	1774
15.443068742752075	1763
15.448126077651978	1852
15.453170537948608	1802
15.458151817321777	1735
15.463123559951782	1823
15.468066692352295	1834
15.4730806350708	1734
15.478183269500732	1782
15.483198642730713	1846
15.488106966018677	1756
15.4931058883667	1746
15.498127222061157	1833
15.50309157371521	1783
15.50807237625122	1715
15.513148546218872	1800
15.518203973770142	1805
15.523173332214355	1711
15.528189659118652	1775
15.533219337463379	1836
15.53816556930542	1743
15.543158292770386	1730
15.54811406135559	1831
15.553123712539673	1789
15.558105945587158	1733
15.563220739364624	1828
15.568203210830688	1830
15.573214769363403	1724
15.578200817108154	1779
15.58326506614685	1848
15.588248014450073	1754
15.593219518661499	1723
15.598234176635742	1778
15.603246450424194	1711
15.608312845230103	1663
15.613301038742065	1757
15.61828064918518	1754
15.623300790786743	1660
15.62826657295227	1719
15.633338212966919	1775
15.638353109359741	1672
15.643335819244385	1674
15.648428678512573	1755
15.653394222259521	1685
15.65838360786438	1624
15.663395881652832	1716
15.668360471725464	1715
15.673327684402466	1618
15.678297519683838	1671
15.68326997756958	1722
15.688217163085938	1537
15.69319772720337	1298
15.69811224937439	1107
15.703072786331177	809
15.707957744598389	678
15.712878465652466	817
15.71782374382019	763
15.722697734832764	676
15.727511644363403	1282
15.73254108428955	2237
15.737579584121704	2703
15.742566347122192	2223
15.747680187225342	1708
15.752753734588623	1588
15.757651329040527	1614
15.762685060501099	1693
15.767554759979248	1658
15.772543907165527	1532
15.777613639831543	1585
15.782607555389404	1661
15.78765606880188	1569
15.792714834213257	1537
15.79766035079956	1622
15.802644968032837	1579
15.80760931968689	1496
15.812618732452393	1574
15.817641735076904	1581
15.822559833526611	1471
15.827740669250488	1508
15.832738637924194	1572
15.83769679069519	1471
15.842698574066162	1440
15.847850799560547	1524
15.852869749069214	1478
15.857847213745117	1398
15.862798690795898	1465
15.867871046066284	1469
15.872920513153076	1354
15.877903938293457	1388
15.882911682128906	1447
15.887902975082397	1344
15.892981052398682	1302
15.897953271865845	1379
15.903066635131836	1316
15.90813422203064	1235
15.9130859375	1312
15.9180748462677	1311
15.923066854476929	1210
15.928118228912354	1266
15.933192491531372	1329
15.938126802444458	1241
15.943081140518188	1237
15.948069334030151	1345
15.95311713218689	1317
15.95811676979065	1288
15.963193416595459	1432
15.968236923217773	1489
15.973140239715576	1434
15.978305578231812	1538
15.983296871185303	1641
15.988309144973755	1587
15.993436336517334	1617
15.99848222732544	1736
16.003476858139038	1691
16.008371353149414	1649
16.013405084609985	1747
16.01847791671753	1749
16.023412227630615	1655
16.028417587280273	1725
16.033389806747437	1778
16.038447856903076	1679
16.043534994125366	1685
16.048572301864624	1773
16.053513050079346	1708
16.058531999588013	1653
16.063417673110962	1744
16.06848645210266	1725
16.073458909988403	1624
16.078500032424927	1691
16.083506107330322	1739
16.088613271713257	1636
16.093663215637207	1644
16.098545789718628	1725
16.103682279586792	1650
16.10868000984192	1608
16.113682746887207	1697
16.1186261177063	1682
16.12357449531555	1583
16.128541946411133	1641
16.133617401123047	1691
16.138624906539917	1591
16.143624305725098	1604
16.14862370491028	1692
16.153629779815674	1631
16.158607244491577	1579
16.163544416427612	1667
16.16854977607727	1655
16.17351269721985	1559
16.178465843200684	1622
16.183483362197876	1680
16.188634872436523	1585
16.1936137676239	1595
16.198687076568604	1672
16.203704833984375	1601
16.208704233169556	1565
16.21375584602356	1665
16.218724727630615	1642
16.223687171936035	1547
16.228697776794434	1618
16.233685970306396	1668
16.238678455352783	1575
16.243706703186035	1589
16.248724699020386	1674
16.253803491592407	1608
16.25880002975464	1573
16.263850688934326	1673
16.268765926361084	1663
16.27373957633972	1581
16.27885365486145	1655
16.283880710601807	1686
16.28888249397278	1587
16.29390549659729	1617
16.298937797546387	1683
16.303937435150146	1570
16.309043645858765	1517
16.314104557037354	1622
16.31908631324768	1599
16.324090480804443	1509
16.329062461853027	1594
16.33405876159668	1627
16.339033842086792	1522
16.34407663345337	1545
16.34916400909424	1615
16.35419464111328	1530
16.359319925308228	1503
16.364280939102173	1592
16.369321584701538	1546
16.374457597732544	1483
16.37947940826416	1573
16.38459849357605	1567
16.389567852020264	1450
16.3945152759552	1403
16.399490356445312	1240
16.404433965682983	892
16.40932846069336	631
16.41424584388733	660
16.41912055015564	700
16.424077033996582	581
16.428983688354492	638
16.433906078338623	1223
16.43887424468994	2018
16.44392967224121	2581
16.448976278305054	2211
16.453956365585327	1543
16.45899796485901	1415
16.46393084526062	1622
16.468878746032715	1590
16.47390842437744	1433
16.47901177406311	1488
16.48400115966797	1546
16.488919258117676	1455
16.4939386844635	1465
16.498929500579834	1532
16.503888368606567	1449
16.508883953094482	1410
16.513984441757202	1505
16.518949031829834	1476
16.52403426170349	1386
16.529064178466797	1457
16.533967971801758	1485
16.53896141052246	1380
16.54395079612732	1403
16.549012660980225	1471
16.554099559783936	1382
16.559128522872925	1329
16.564170837402344	1422
16.56914758682251	1386
16.574089527130127	1294
16.57908296585083	1362
16.58414316177368	1381
16.589194297790527	1263
16.59422755241394	1284
16.59920597076416	1349
16.604187965393066	1249
16.609245777130127	1207
16.61424970626831	1288
16.619280338287354	1240
16.62425184249878	1158
16.62922716140747	1234
16.63412833213806	1249
16.639121770858765	1148
16.64412784576416	1192
16.64917254447937	1282
16.65417242050171	1213
16.659217834472656	1209
16.664111852645874	1341
16.66923427581787	1354
16.674211502075195	1329
16.67925000190735	1464
16.684267282485962	1532
16.689253091812134	1476
16.694247007369995	1557
16.69921350479126	1661
16.70421528816223	1598
16.709214210510254	1602
16.714295148849487	1716
16.71931552886963	1684
16.72434401512146	1614
16.729295015335083	1705
16.73424005508423	1738
16.7391939163208	1641
16.74420928955078	1678
16.749247789382935	1749
16.754247188568115	1660
16.75931978225708	1636
16.764269828796387	1732
16.76927161216736	1693
16.77424907684326	1616
16.779277801513672	1697
16.784242630004883	1716
16.789212942123413	1615
16.794248342514038	1653
16.799273014068604	1716
16.80426287651062	1628
16.80932331085205	1607
16.81438899040222	1699
16.819376945495605	1652
16.824312210083008	1582
16.829356908798218	1667
16.834370374679565	1676
16.839342832565308	1576
16.844359159469604	1620
16.849380016326904	1680
16.854323625564575	1596
16.859323501586914	1585
16.864298105239868	1679
16.869480848312378	1629
16.87440586090088	1564
16.8794424533844	1653
16.884490966796875	1665
16.889580249786377	1565
16.89464259147644	1621
16.89956498146057	1680
16.904643058776855	1585
16.90967845916748	1587
16.914724588394165	1685
16.919683933258057	1629
16.92464590072632	1570
16.929744243621826	1662
16.934595346450806	1668
16.93966841697693	1569
16.944708585739136	1624
16.9498233795166	1680
16.954789876937866	1590
16.959831476211548	1598
16.964765548706055	1689
16.9697322845459	1634
16.974705457687378	1584
16.979823350906372	1684
16.98484444618225	1689
16.98992657661438	1594
16.99486017227173	1662
16.9997398853302	1716
17.00471591949463	1615
17.009751558303833	1609
17.014755964279175	1683
17.019747257232666	1601
17.024693727493286	1533
17.029699087142944	1632
17.034648656845093	1639
17.03972101211548	1544
17.044788360595703	1613
17.049911975860596	1665
17.054851531982422	1561
17.059802055358887	1555
17.064799547195435	1640
17.069751739501953	1575
17.07475733757019	1517
17.079893112182617	1605
17.084909439086914	1602
17.089904069900513	1510
17.09496831893921	1579
17.100040674209595	1617
17.10501003265381	1514
17.110053539276123	1445
17.115115880966187	1293
17.120192050933838	921
17.12507963180542	635
17.12998127937317	700
17.13485074043274	815
17.139750003814697	667
17.144551992416382	733
17.149553060531616	1310
17.154557943344116	2006
17.15961503982544	2539
17.164541244506836	2268
17.16952872276306	1620
17.174566507339478	1419
17.17962670326233	1606
17.1845920085907	1635
17.189626216888428	1494
17.194612741470337	1532
17.19949746131897	1605
17.204596996307373	1511
17.209612131118774	1499
17.214611530303955	1583
17.219527006149292	1527
17.224475860595703	1463
17.229444980621338	1546
17.23444676399231	1550
17.239503860473633	1453
17.244622468948364	1504
17.249625205993652	1556
17.254629850387573	1452
17.25963044166565	1445
17.26464056968689	1531
17.269610166549683	1467
17.274577617645264	1398
17.279581785202026	1481
17.28456401824951	1470
17.28956961631775	1359
17.294567108154297	1408
17.299591064453125	1452
17.304583311080933	1355
17.30972647666931	1333
17.314685821533203	1403
17.319863319396973	1324
17.324780702590942	1257
17.329827308654785	1333
17.334781646728516	1315
17.33974051475525	1210
17.344821453094482	1268
17.349817276000977	1318
17.35489845275879	1220
17.359828233718872	1234
17.364872932434082	1339
17.369849681854248	1286
17.37485957145691	1256
17.379896640777588	1389
17.38483691215515	1431
17.389870405197144	1389
17.394795179367065	1504
17.39976978302002	1609
17.404759407043457	1560
17.40981101989746	1605
17.414978504180908	1730
17.420030117034912	1680
17.425084352493286	1655
17.430067539215088	1764
17.435253858566284	1752
17.440211057662964	1671
17.44529390335083	1755
17.450270652770996	1801
17.45527744293213	1703
17.460327863693237	1725
17.465317010879517	1806
17.47016954421997	1729
17.47509503364563	1685
17.48010492324829	1786
17.485074520111084	1773
17.490036725997925	1675
17.495079278945923	1741
17.500192165374756	1787
17.505131244659424	1682
17.510135173797607	1697
17.515133142471313	1777
17.520256519317627	1703
17.525281190872192	1666
17.530272245407104	1753
17.53521752357483	1726
17.540245056152344	1637
17.545257091522217	1712
17.55022168159485	1748
17.55518937110901	1648
17.56022620201111	1672
17.565263509750366	1749
17.570322036743164	1673
17.575358390808105	1637
17.5803062915802	1728
17.585328578948975	1703
17.590266227722168	1624
17.59529447555542	1704
17.60026240348816	1742
17.605372428894043	1639
17.610352277755737	1667
17.615371704101562	1743
17.620346784591675	1665
17.625293254852295	1634
17.63024926185608	1727
17.63527250289917	1700
17.640249490737915	1619
17.64536213874817	1701
17.650352716445923	1735
17.65531826019287	1633
17.66043996810913	1666
17.665491342544556	1746
17.67052149772644	1663
17.67562699317932	1636
17.680660724639893	1730
17.685724020004272	1685
17.690665006637573	1611
17.69567322731018	1696
17.70068907737732	1715
17.70569133758545	1620
17.710728645324707	1668
17.71571922302246	1737
17.720715522766113	1650
17.7257182598114	1629
17.730669021606445	1720
17.735671520233154	1678
17.740663051605225	1613
17.745754718780518	1707
17.75068688392639	1733
17.7556631565094	1632
17.760675191879272	1665
17.765788555145264	1731
17.771036386489868	1639
17.776095867156982	1633
17.781073808670044	1707
17.786094903945923	1640
17.791114568710327	1569
17.796114921569824	1653
17.801188945770264	1661
17.806069374084473	1579
17.81124496459961	1648
17.81618356704712	1697
17.821179151535034	1595
17.826179027557373	1590
17.831165313720703	1683
17.836115837097168	1624
17.841118097305298	1558
17.846113443374634	1646
17.8510901927948	1650
17.856081247329712	1549
17.861140727996826	1614
17.86621856689453	1675
17.871196746826172	1567
17.87619662284851	1560
17.881305932998657	1523
17.886264085769653	1196
17.891209602355957	812
17.89611506462097	704
17.900909185409546	775
17.905822038650513	774
17.91075301170349	718
17.915724992752075	903
17.920592784881592	1428
17.92558717727661	2188
17.930567264556885	2661
17.93560242652893	2120
17.940619468688965	1510
17.945661306381226	1544
17.95063877105713	1661
17.955577850341797	1569
17.960586071014404	1568
17.96555256843567	1628
17.970548629760742	1553
17.97558569908142	1532
17.980631828308105	1619
17.98570227622986	1572
17.990618467330933	1497
17.995591402053833	1575
18.000542402267456	1582
18.005542516708374	1473
18.010656118392944	1514
18.01568102836609	1580
18.020668029785156	1484
18.025654792785645	1460
18.030650854110718	1549
18.03564763069153	1503
18.04061484336853	1426
18.04565739631653	1500
18.050675630569458	1504
18.055660009384155	1396
18.06065607070923	1432
18.065611362457275	1495
18.070622205734253	1391
18.075652360916138	1354
18.080693244934082	1438
18.085697889328003	1383
18.090665340423584	1293
18.09577441215515	1360
18.100746870040894	1359
18.10579538345337	1247
18.110835790634155	1286
18.11593747138977	1349
18.120959997177124	1252
18.125945329666138	1241
18.13092064857483	1337
18.13593101501465	1291
18.14091181755066	1245
18.145883560180664	1357
18.150811195373535	1405
18.1557936668396	1350
18.16082262992859	1452
18.165891408920288	1574
18.1708767414093	1537
18.17594075202942	1573
18.180973768234253	1709
18.185993432998657	1686
18.190946578979492	1646
18.195992469787598	1757
18.2009379863739	1776
18.205910682678223	1684
18.210994243621826	1757
18.21607232093811	1817
18.22103238105774	1721
18.225998163223267	1723
18.23101234436035	1818
18.23608088493347	1760
18.24100422859192	1695
18.2459933757782	1781
18.25093102455139	1790
18.256020069122314	1694
18.26101803779602	1744
18.265986919403076	1795
18.270981311798096	1696
18.27606177330017	1693
18.281137466430664	1786
18.286191701889038	1729
18.291144371032715	1667
18.296133518218994	1755
18.30117106437683	1749
18.306254386901855	1653
18.31126832962036	1715
18.31627345085144	1764
18.3213472366333	1662
18.32641291618347	1675
18.331378698349	1764
18.33633255958557	1697
18.341361045837402	1645
18.34638214111328	1736
18.351332426071167	1726
18.356395721435547	1642
18.361397981643677	1713
18.36644697189331	1754
18.371522903442383	1654
18.37640905380249	1674
18.381415843963623	1763
18.38650369644165	1689
18.391501665115356	1642
18.396424770355225	1739
18.401400804519653	1726
18.406450986862183	1643
18.41152834892273	1717
18.416576147079468	1757
18.42153263092041	1653
18.426472902297974	1669
18.431464195251465	1761
18.436474800109863	1696
18.44143271446228	1650
18.446515321731567	1746
18.45162343978882	1725
18.456719636917114	1641
18.461655616760254	1716
18.46660041809082	1752
18.471571445465088	1651
18.476582050323486	1675
18.481630563735962	1761
18.486667156219482	1683
18.491697549819946	1639
18.496590852737427	1735
18.501587867736816	1711
18.506537437438965	1620
18.511593341827393	1696
18.51662516593933	1737
18.521548748016357	1639
18.52664852142334	1657
18.531533241271973	1740
18.53653645515442	1671
18.54144811630249	1634
18.546465396881104	1740
18.55145812034607	1730
18.556567430496216	1634
18.561516046524048	1699
18.56660795211792	1735
18.57156467437744	1640
18.576557874679565	1649
18.58150315284729	1716
18.586572408676147	1635
18.59160590171814	1590
18.59658694267273	1689
18.601603746414185	1681
18.606610536575317	1596
18.611639261245728	1670
18.616655588150024	1707
18.621593475341797	1602
18.62660813331604	1623
18.63159203529358	1704
18.63658618927002	1623
18.641651153564453	1587
18.646610498428345	1680
18.651588439941406	1654
18.65663743019104	1572
18.66170620918274	1653
18.666543006896973	1689
18.671486854553223	1578
18.676610946655273	1555
18.681634426116943	1426
18.686585426330566	1057
18.691499710083008	730
18.696398735046387	752
18.701242208480835	862
18.70620369911194	757
18.711072206497192	738
18.715970039367676	1175
18.72098994255066	1823
18.72598123550415	2520
18.730960369110107	2518
18.73604726791382	1819
18.741097927093506	1486
18.746156454086304	1646
18.75112771987915	1689
18.75622248649597	1563
18.761150360107422	1606
18.766221284866333	1657
18.7710919380188	1559
18.776156425476074	1565
18.781165838241577	1646
18.78617763519287	1576
18.79109263420105	1516
18.796111345291138	1603
18.801085233688354	1594
18.80609107017517	1499
18.811139345169067	1557
18.816166162490845	1601
18.82114839553833	1496
18.826152324676514	1489
18.83115816116333	1575
18.836068630218506	1508
18.841086864471436	1451
18.84615707397461	1532
18.851207494735718	1514
18.856224298477173	1408
18.861191034317017	1462
18.866111993789673	1504
18.871073007583618	1393
18.87604832649231	1381
18.8811354637146	1462
18.886049270629883	1388
18.890957832336426	1312
18.89603853225708	1394
18.901024341583252	1383
18.906028509140015	1276
18.91107439994812	1333
18.9161536693573	1379
18.921130418777466	1280
18.926076889038086	1291
18.93106508255005	1392
18.936096668243408	1337
18.941165685653687	1295
18.9462673664093	1420
18.951246738433838	1458
18.9561448097229	1413
18.96122169494629	1537
18.966315746307373	1637
18.971309900283813	1587
18.976314783096313	1641
18.98133683204651	1761
18.98630166053772	1725
18.9913432598114	1702
18.996333837509155	1809
19.001327991485596	1805
19.006295680999756	1725
19.011337995529175	1804
19.016404390335083	1852
19.021401405334473	1752
19.026478052139282	1777
19.031466007232666	1861
19.03643274307251	1785
19.041398763656616	1742
19.046440839767456	1841
19.051467180252075	1826
19.05643057823181	1728
19.061373710632324	1796
19.066402435302734	1839
19.071409463882446	1738
19.0764319896698	1757
19.081471920013428	1837
19.08650279045105	1763
19.091505527496338	1721
19.09661364555359	1806
19.10148811340332	1782
19.106451988220215	1690
19.111488103866577	1760
19.1165132522583	1802
19.121567726135254	1702
19.1265287399292	1720
19.131565809249878	1798
19.136624574661255	1724
19.14160394668579	1694
19.14663815498352	1789
19.15167737007141	1760
19.156578540802002	1675
19.161675453186035	1757
19.1667263507843	1790
19.171721935272217	1687
19.1767578125	1718
19.181780338287354	1796
19.18681311607361	1715
19.19197726249695	1691
19.196850538253784	1787
19.20185160636902	1747
19.206907272338867	1669
19.211889266967773	1758
19.21699595451355	1783
19.22196865081787	1679
19.227030038833618	1721
19.231989860534668	1802
19.236910820007324	1716
19.24189329147339	1691
19.246994018554688	1787
19.252052783966064	1739
19.256995677947998	1664
19.262020587921143	1755
19.26709246635437	1771
19.27212691307068	1671
19.277212142944336	1716
19.28223466873169	1785
19.287221670150757	1693
19.29221248626709	1678
19.297200918197632	1770
19.30223059654236	1729
19.307202577590942	1665
19.312288522720337	1757
19.31746196746826	1763
19.32241916656494	1659
19.327494382858276	1714
19.332452535629272	1772
19.33742642402649	1675
19.34236454963684	1654
19.347411632537842	1731
19.35246968269348	1660
19.357471704483032	1594
19.362499713897705	1701
19.36752724647522	1718
19.372541904449463	1618
19.377534866333008	1672
19.38257145881653	1724
19.3875732421875	1626
19.392566442489624	1625
19.39751696586609	1716
19.40255308151245	1655
19.40754199028015	1596
19.412652254104614	1688
19.41765809059143	1686
19.42265033721924	1591
19.42771005630493	1648
19.43265676498413	1685
19.43765687942505	1580
19.442612648010254	1477
19.44766116142273	1319
19.45270800590515	950
19.457587718963623	666
19.462442636489868	755
19.467341661453247	871
19.472198009490967	711
19.477161645889282	795
19.48207378387451	1472
19.48702883720398	2223
19.49200201034546	2644
19.496971368789673	2262
19.50204825401306	1657
19.506985187530518	1516
19.51198124885559	1686
19.51700258255005	1691
19.52196979522705	1537
19.52704358100891	1565
19.532013416290283	1646
19.537050485610962	1563
19.542057514190674	1533
19.547008514404297	1615
19.55199694633484	1566
19.55694580078125	1493
19.561967849731445	1574
19.56694269180298	1588
19.57199192047119	1478
19.5770001411438	1514
19.58205223083496	1573
19.587052822113037	1470
19.59203839302063	1448
19.59702444076538	1540
19.601980924606323	1492
19.606968641281128	1406
19.612013578414917	1481
19.616973400115967	1493
19.621907949447632	1380
19.62696623802185	1412
19.632043600082397	1472
19.63702392578125	1373
19.642035245895386	1332
19.647133350372314	1411
19.65211296081543	1350
19.65712022781372	1267
19.662204265594482	1340
19.667194843292236	1336
19.67211890220642	1232
19.677140951156616	1280
19.682151794433594	1341
19.687217712402344	1245
19.69225239753723	1240
19.69727611541748	1344
19.702257871627808	1309
19.70724868774414	1272
19.71227240562439	1394
19.717280864715576	1441
19.722283363342285	1391
19.727298498153687	1495
19.732321739196777	1598
19.73737144470215	1550
19.7423837184906	1589
19.747434616088867	1715
19.752406120300293	1675
19.7574303150177	1638
19.76244807243347	1744
19.76747989654541	1753
19.772481203079224	1666
19.77752184867859	1739
19.782554864883423	1795
19.787656784057617	1699
19.792606115341187	1711
19.797622442245483	1801
19.80262279510498	1736
19.807600021362305	1682
19.81268000602722	1768
19.817654371261597	1762
19.822700262069702	1666
19.827707767486572	1730
19.832601308822632	1770
19.837616443634033	1670
19.84265661239624	1681
19.84771490097046	1766
19.852673292160034	1694
19.85768985748291	1639
19.86269474029541	1731
19.867618799209595	1720
19.872698307037354	1621
19.87768006324768	1680
19.88275980949402	1730
19.887736558914185	1639
19.89274764060974	1643
19.897650957107544	1719
19.90273690223694	1650
19.907700061798096	1607
19.91267156600952	1699
19.91763687133789	1687
19.922627210617065	1598
19.927626609802246	1663
19.93260908126831	1715
19.937620639801025	1613
19.94263744354248	1617
19.94768500328064	1705
19.952655792236328	1641
19.957624197006226	1596
19.962626218795776	1688
19.967701196670532	1678
19.972682237625122	1587
19.977714776992798	1657
19.982731103897095	1706
19.987805128097534	1605
19.99280095100403	1618
19.9978244304657	1707
20.002881288528442	1645
20.007927894592285	1613
20.012863159179688	1708
20.01783514022827	1691
20.02287769317627	1606
20.027854681015015	1683
20.032798290252686	1728
20.03778624534607	1639
20.04273819923401	1654
20.047786712646484	1733
20.052813291549683	1662
20.057803630828857	1602
20.06267237663269	1660
20.067678928375244	1635
20.072774410247803	1551
20.07772946357727	1628
20.08279323577881	1668
20.087832927703857	1578
20.092856407165527	1594
20.097891092300415	1676
20.102830171585083	1599
20.107892990112305	1552
20.11289095878601	1641
20.117801666259766	1618
20.122774124145508	1528
20.12777328491211	1594
20.13279676437378	1629
20.137754201889038	1535
20.142839670181274	1545
20.147868156433105	1616
20.152832746505737	1486
20.157958507537842	1238
20.16295552253723	1086
20.167802333831787	829
20.172719717025757	620
20.177706718444824	725
20.182680368423462	780
20.1875479221344	615
20.19243621826172	1038
20.197447061538696	2014
20.202462673187256	2646
20.20747709274292	2264
20.212531566619873	1701
20.21749782562256	1533
20.222506284713745	1558
20.227453231811523	1629
20.232460737228394	1608
20.237454414367676	1482
20.242496967315674	1506
20.247523307800293	1607
20.252553701400757	1535
20.257452964782715	1468
20.262416124343872	1551
20.26741933822632	1551
20.27239966392517	1452
20.2775719165802	1507
20.28255295753479	1555
20.287548780441284	1454
20.29259157180786	1454
20.297643184661865	1537
20.302602291107178	1461
20.307560682296753	1406
20.312596559524536	1495
20.317651510238647	1474
20.322569131851196	1370
20.327595710754395	1427
20.33255386352539	1465
20.337598085403442	1356
20.342613458633423	1356
20.347626209259033	1428
20.35268473625183	1345
20.357652187347412	1279
20.36255121231079	1352
20.367522478103638	1329
20.372536182403564	1220
20.37758207321167	1280
20.3825740814209	1323
20.38762354850769	1217
20.39261555671692	1222
20.39759659767151	1315
20.40265393257141	1250
20.407684326171875	1206
20.41266369819641	1313
20.417654275894165	1330
20.422667026519775	1269
20.427775621414185	1385
20.432781219482422	1484
20.4377281665802	1435
20.442651510238647	1493
20.447810411453247	1628
20.45281147956848	1599
20.457728385925293	1594
20.46275043487549	1712
20.46770930290222	1719
20.472729444503784	1648
20.477669715881348	1728
20.482680797576904	1777
20.487709045410156	1685
20.49268937110901	1703
20.49777388572693	1794
20.502760410308838	1724
20.507832288742065	1684
20.51281213760376	1776
20.517833471298218	1756
20.52288508415222	1669
20.527824878692627	1743
20.53287696838379	1779
20.537880897521973	1678
20.542990922927856	1699
20.548056840896606	1773
20.55306625366211	1694
20.558119297027588	1660
20.563101530075073	1746
20.568117380142212	1712
20.57322907447815	1635
20.57830262184143	1712
20.58332657814026	1733
20.5883686542511	1628
20.593397855758667	1665
20.598386764526367	1736
20.60347628593445	1653
20.608499765396118	1636
20.61351466178894	1728
20.618488788604736	1678
20.62342667579651	1602
20.6284818649292	1685
20.633371829986572	1704
20.638429880142212	1606
20.643386363983154	1651
20.64846706390381	1722
20.653463125228882	1636
20.65839457511902	1624
20.663390159606934	1723
20.66849946975708	1679
20.6734516620636	1606
20.678422212600708	1688
20.68343997001648	1713
20.68849754333496	1611
20.69343638420105	1661
20.698421716690063	1730
20.703404664993286	1642
20.708417892456055	1631
20.713438987731934	1723
20.7183997631073	1677
20.723366022109985	1604
20.728360652923584	1687
20.73343276977539	1705
20.73842477798462	1610
20.743640422821045	1659
20.748759269714355	1729
20.753735542297363	1640
20.75873303413391	1628
20.763726472854614	1722
20.768796682357788	1675
20.773789167404175	1616
20.77885627746582	1715
20.78378415107727	1727
20.788836240768433	1631
20.793899536132812	1691
20.79892373085022	1745
20.803877115249634	1651
20.808898210525513	1646
20.81392216682434	1718
20.818887948989868	1629
20.823851823806763	1565
20.828803300857544	1666
20.83382272720337	1673
20.83878445625305	1572
20.843868732452393	1633
20.84892773628235	1688
20.85391402244568	1588
20.859006881713867	1588
20.863972425460815	1675
20.869004249572754	1611
20.874033212661743	1560
20.879091262817383	1645
20.884148836135864	1636
20.889066457748413	1540
20.894093990325928	1602
20.899089097976685	1648
20.90404725074768	1543
20.909109354019165	1446
20.914172649383545	1281
20.919134855270386	911
20.924073219299316	622
20.928953170776367	733
20.933794021606445	896
20.93864679336548	746
20.943538665771484	816
20.948441982269287	1400
20.95354390144348	2098
20.958673000335693	2567
20.963639974594116	2244
20.968685626983643	1620
20.973630905151367	1454
20.978601455688477	1633
20.983625173568726	1658
20.988677263259888	1513
20.99370574951172	1553
20.998625993728638	1626
21.003533124923706	1538
21.008498430252075	1518
21.013511657714844	1604
21.018527030944824	1556
21.023441553115845	1485
21.02843737602234	1565
21.033446073532104	1564
21.038400173187256	1459
21.043421268463135	1512
21.048432111740112	1575
21.05349349975586	1473
21.058428287506104	1445
21.063364505767822	1541
21.06825828552246	1496
21.073241472244263	1408
21.07835102081299	1482
21.08336329460144	1494
21.0883686542511	1383
21.093392372131348	1417
21.098408460617065	1474
21.103358030319214	1375
21.10840368270874	1346
21.113385438919067	1419
21.118403911590576	1356
21.123399257659912	1262
21.128482818603516	1330
21.133406400680542	1338
21.13833451271057	1229
21.143364667892456	1260
21.148332118988037	1327
21.15336298942566	1240
21.15828537940979	1226
21.16333794593811	1326
21.168413162231445	1298
21.17333745956421	1247
21.178428888320923	1365
21.183512449264526	1432
21.188543796539307	1388
21.19362449645996	1488
21.198522329330444	1601
21.203490257263184	1559
21.208472967147827	1590
21.21353816986084	1718
21.218454360961914	1702
21.223392963409424	1653
21.2283935546875	1749
21.233419179916382	1770
21.23842477798462	1679
21.243357181549072	1738
21.24851393699646	1805
21.253497838974	1714
21.258490085601807	1699
21.263490200042725	1794
21.268390417099	1752
21.27340579032898	1683
21.27854323387146	1769
21.2836012840271	1777
21.288601398468018	1676
21.29361057281494	1724
21.29870867729187	1786
21.303688764572144	1688
21.308754682540894	1685
21.31378984451294	1774
21.31877875328064	1711
21.32377028465271	1650
21.328795909881592	1737
21.333844900131226	1739
21.338848114013672	1640
21.343923091888428	1699
21.348976373672485	1741
21.354052782058716	1643
21.35904812812805	1660
21.364130973815918	1753
21.369215965270996	1681
21.374199151992798	1633
21.37922692298889	1731
21.384283781051636	1719
21.389335870742798	1633
21.394219398498535	1701
21.399128913879395	1741
21.40406560897827	1645
21.409112453460693	1666
21.414095401763916	1754
21.419081687927246	1682
21.424036264419556	1634
21.429065227508545	1731
21.4340078830719	1717
21.438924074172974	1623
21.444047451019287	1689
21.44909429550171	1734
21.454106092453003	1637
21.45914387702942	1656
21.46421194076538	1748
21.46921133995056	1671
21.47411584854126	1625
21.47918677330017	1724
21.48429536819458	1708
21.489288806915283	1617
21.494336366653442	1693
21.499377012252808	1730
21.504328966140747	1629
21.509372234344482	1651
21.514414072036743	1731
21.519360065460205	1646
21.524354457855225	1608
21.529308080673218	1702
21.53429937362671	1684
21.539284229278564	1605
21.54426670074463	1680
21.549380779266357	1715
21.554335355758667	1614
21.55929207801819	1637
21.564226150512695	1718
21.569231748580933	1648
21.574365377426147	1614
21.57934331893921	1719
21.584325551986694	1696
21.58942675590515	1604
21.59434223175049	1673
21.59931516647339	1707
21.6043381690979	1609
21.609317302703857	1632
21.61434555053711	1694
21.61930823326111	1608
21.62425971031189	1558
21.62930464744568	1657
21.634305000305176	1643
21.63928771018982	1569
21.644306659698486	1645
21.64933705329895	1680
21.654306650161743	1577
21.659323692321777	1596
21.664302825927734	1676
21.669533252716064	1597
21.67457866668701	1565
21.67963981628418	1659
21.684588193893433	1625
21.689507961273193	1547
21.694503784179688	1625
21.69949746131897	1652
21.704478979110718	1540
21.709496021270752	1556
21.714585304260254	1490
21.719484567642212	1140
21.724546432495117	790
21.72947597503662	718
21.734342098236084	776
21.739258766174316	775
21.74412226676941	754
21.749094486236572	970
21.754080533981323	1509
21.759074687957764	2277
21.764045238494873	2629
21.769060611724854	2013
21.77407455444336	1498
21.779255628585815	1579
21.78422522544861	1640
21.789207696914673	1546
21.794204473495483	1586
21.79918146133423	1616
21.8041672706604	1521
21.809178113937378	1543
21.814229249954224	1623
21.819270133972168	1542
21.824311017990112	1492
21.82919692993164	1582
21.834177494049072	1557
21.83917236328125	1467
21.84420919418335	1532
21.849229335784912	1560
21.85430383682251	1453
21.859246253967285	1472
21.86421012878418	1552
21.8693368434906	1461
21.87432098388672	1418
21.8792781829834	1508
21.88419246673584	1473
21.889352321624756	1377
21.894322156906128	1447
21.899290561676025	1474
21.904301404953003	1359
21.909380435943604	1363
21.91447901725769	1429
21.91948628425598	1335
21.924482822418213	1287
21.92945122718811	1369
21.93435835838318	1326
21.93934941291809	1230
21.944427967071533	1293
21.949500560760498	1317
21.954495191574097	1216
21.959476232528687	1246
21.96448302268982	1328
21.969406366348267	1262
21.97440457344055	1243
21.979463815689087	1367
21.984386444091797	1376
21.98943328857422	1341
21.994482278823853	1471
21.99944281578064	1556
22.004400491714478	1504
22.00944185256958	1586
22.014508962631226	1704
22.01946210861206	1661
22.024405241012573	1652
22.029409885406494	1763
22.03437352180481	1750
22.039449214935303	1682
22.044469594955444	1763
22.04949951171875	1802
22.05454707145691	1705
22.0595486164093	1746
22.06450581550598	1821
22.069530725479126	1741
22.074530839920044	1712
22.079510927200317	1806
22.084446907043457	1771
22.08939528465271	1690
22.09441041946411	1770
22.099422693252563	1802
22.104424953460693	1695
22.109445810317993	1720
22.114554166793823	1791
22.119451761245728	1707
22.12450623512268	1680
22.12945556640625	1770
22.134450435638428	1732
22.139500856399536	1651
22.144542694091797	1736
22.14960741996765	1761
22.15457248687744	1659
22.159555912017822	1688
22.164573192596436	1760
22.169561862945557	1681
22.17454218864441	1664
22.17957592010498	1761
22.18450117111206	1721
22.18953514099121	1639
22.19451117515564	1726
22.199482679367065	1753
22.20444083213806	1646
22.20950937271118	1690
22.214439153671265	1770
22.219439029693604	1689
22.22443175315857	1661
22.229410409927368	1756
22.234407663345337	1720
22.239468812942505	1641
22.2444486618042	1721
22.249536275863647	1752
22.254469633102417	1655
22.259443759918213	1689
22.264408111572266	1765
22.269411087036133	1686
22.274382829666138	1661
22.279337406158447	1748
22.28430700302124	1717
22.289331912994385	1635
22.294332027435303	1720
22.29930329322815	1749
22.304283142089844	1647
22.309338331222534	1679
22.314348220825195	1760
22.319281101226807	1680
22.32420825958252	1642
22.329209327697754	1737
22.334244966506958	1708
22.33932328224182	1629
22.344271183013916	1706
22.349257230758667	1740
22.354355573654175	1637
22.35935378074646	1667
22.364305019378662	1752
22.369279861450195	1676
22.37423610687256	1641
22.379323482513428	1738
22.38455843925476	1704
22.389513969421387	1628
22.39442491531372	1708
22.399402141571045	1746
22.40432572364807	1649
22.409315824508667	1675
22.41438055038452	1742
22.41938042640686	1661
22.424327850341797	1637
22.429303884506226	1725
22.434314250946045	1680
22.439258575439453	1594
22.44423794746399	1668
22.44925594329834	1702
22.454335927963257	1609
22.459308385849	1648
22.464274644851685	1722
22.469238996505737	1640
22.47425603866577	1606
22.479259729385376	1701
22.48430871963501	1671
22.489360332489014	1584
22.494385242462158	1663
22.499428033828735	1690
22.504374265670776	1588
22.5094256401062	1625
22.514464855194092	1697
22.51954174041748	1608
22.52458095550537	1571
22.529553174972534	1605
22.534592151641846	1341
22.53963279724121	960
22.54450011253357	779
22.549417734146118	761
22.55431294441223	788
22.559236764907837	800
22.564080953598022	831
22.568942308425903	1172
22.57390570640564	1883
22.57897162437439	2639
22.584007263183594	2429
22.588943481445312	1709
22.5939359664917	1547
22.599016427993774	1670
22.604005098342896	1609
22.608993768692017	1589
22.6139874458313	1640
22.61898112297058	1574
22.623931646347046	1548
22.628918647766113	1637
22.63390564918518	1611
22.638888359069824	1511
22.643893003463745	1579
22.648833751678467	1615
22.653831481933594	1513
22.65882158279419	1521
22.663823127746582	1602
22.66883397102356	1530
22.673823595046997	1477
22.6788432598114	1565
22.683842182159424	1545
22.688836812973022	1441
22.69386339187622	1504
22.698811531066895	1546
22.703806400299072	1439
22.708811283111572	1440
22.713883876800537	1512
22.718889236450195	1431
22.72375988960266	1377
22.728771686553955	1455
22.73377251625061	1424
22.738720893859863	1316
22.743772506713867	1371
22.748812437057495	1402
22.753865957260132	1289
22.758809328079224	1297
22.763797760009766	1374
22.768738985061646	1294
22.773848056793213	1247
22.77881360054016	1346
22.783881902694702	1339
22.788926124572754	1257
22.794002056121826	1351
22.79887890815735	1426
22.803882837295532	1365
22.808927297592163	1429
22.813924312591553	1570
22.81891393661499	1552
22.823878049850464	1555
22.828914165496826	1691
22.833876848220825	1717
22.838850736618042	1662
22.84384036064148	1755
22.849000930786133	1818
22.853949308395386	1734
22.858951091766357	1760
22.86394476890564	1845
22.86899471282959	1775
22.873995065689087	1737
22.878950119018555	1839
22.883971452713013	1817
22.88896942138672	1725
22.893951177597046	1800
22.898988485336304	1840
22.90398931503296	1739
22.90904998779297	1760
22.914007902145386	1834
22.91902756690979	1750
22.92401885986328	1714
22.92903232574463	1815
22.934070110321045	1792
22.939051866531372	1705
22.94405961036682	1778
22.949132919311523	1800
22.954129457473755	1701
22.959148406982422	1737
22.964046239852905	1807
22.969021558761597	1725
22.973999977111816	1688
22.979145050048828	1782
22.98413848876953	1753
22.989080905914307	1669
22.99417281150818	1745
22.99907112121582	1772
23.004162549972534	1672
23.009260654449463	1708
23.01426887512207	1789
23.01931619644165	1708
23.024250030517578	1685
23.029260635375977	1780
23.034117698669434	1741
23.039111375808716	1659
23.044252634048462	1743
23.04920196533203	1777
23.054142951965332	1670
23.059101819992065	1696
23.064093828201294	1776
23.069161891937256	1694
23.07407832145691	1668
23.07909107208252	1768
23.084158420562744	1734
23.089214086532593	1650
23.094316244125366	1735
23.09932518005371	1768
23.104313850402832	1665
23.109312534332275	1695
23.114388465881348	1766
23.11941885948181	1681
23.124386310577393	1660
23.129406452178955	1758
23.134342908859253	1719
23.139350652694702	1643
23.14428949356079	1717
23.149286031723022	1743
23.154369115829468	1646
23.15925931930542	1685
23.1644446849823	1762
23.169265031814575	1678
23.174214124679565	1657
23.179272651672363	1750
23.18426775932312	1715
23.1893470287323	1649
23.19433903694153	1732
23.19922971725464	1740
23.20422124862671	1637
23.209289073944092	1679
23.214268922805786	1753
23.219289541244507	1655
23.2242488861084	1623
23.229228734970093	1702
23.234230518341064	1657
23.239272356033325	1589
23.244272470474243	1685
23.249262809753418	1713
23.254286289215088	1614
23.259316444396973	1654
23.264236450195312	1718
23.26929211616516	1624
23.274240970611572	1604
23.27925729751587	1697
23.28425407409668	1656
23.289263010025024	1576
23.294279098510742	1653
23.299203634262085	1676
23.3042631149292	1583
23.30930209159851	1620
23.314342737197876	1674
23.319344520568848	1461
23.32433772087097	1186
23.329315900802612	987
23.334086418151855	732
23.338958501815796	646
23.343828678131104	844
23.348760843276978	860
23.35360860824585	796
23.358477115631104	1368
23.363461017608643	2292
23.368448972702026	2682
23.373411655426025	2152
23.378445625305176	1690
23.38345217704773	1619
23.388492822647095	1617
23.39341163635254	1657
23.39837408065796	1641
23.403303623199463	1522
23.40835666656494	1543
23.413454055786133	1638
23.418524265289307	1565
23.42348885536194	1503
23.428472757339478	1585
23.433433055877686	1572
23.438403129577637	1475
23.4433491230011	1531
23.448545217514038	1574
23.453543424606323	1473
23.45854640007019	1477
23.463493824005127	1553
23.468482732772827	1473
23.473443508148193	1419
23.478474140167236	1514
23.483460664749146	1491
23.48846960067749	1376
23.49353837966919	1433
23.49854278564453	1474
23.503509521484375	1369
23.508604288101196	1371
23.513755559921265	1439
23.518727779388428	1347
23.52368426322937	1286
23.52867317199707	1363
23.533672332763672	1326
23.538660049438477	1226
23.543699026107788	1290
23.548694133758545	1316
23.55384087562561	1206
23.55879521369934	1233
23.56384587287903	1320
23.568803071975708	1244
23.57386350631714	1217
23.57894730567932	1327
23.583916425704956	1325
23.588996410369873	1266
23.593978881835938	1384
23.59885334968567	1465
23.603904008865356	1411
23.608967781066895	1489
23.61397910118103	1613
23.618968725204468	1581
23.62387728691101	1581
23.628879070281982	1695
23.63391423225403	1681
23.638901233673096	1620
23.643936157226562	1712
23.648957014083862	1749
23.654051780700684	1648
23.659018993377686	1694
23.66391658782959	1777
23.668900728225708	1694
23.673861503601074	1657
23.678875207901	1746
23.68384313583374	1721
23.688859462738037	1638
23.693898677825928	1707
23.698843002319336	1742
23.703792333602905	1645
23.708857536315918	1676
23.71383810043335	1755
23.71885347366333	1670
23.723839282989502	1628
23.728782653808594	1713
23.733720302581787	1684
23.73871397972107	1602
23.743820428848267	1679
23.74884057044983	1706
23.753823041915894	1602
23.75881338119507	1628
23.763726472854614	1707
23.768676280975342	1625
23.773747444152832	1589
23.778737545013428	1683
23.783819913864136	1661
23.788851499557495	1577
23.7939715385437	1654
23.798834800720215	1687
23.803868055343628	1586
23.808846950531006	1618
23.813891172409058	1691
23.818862676620483	1609
23.82381582260132	1578
23.82880425453186	1676
23.83372712135315	1651
23.83872365951538	1572
23.843798398971558	1648
23.848917961120605	1678
23.85392928123474	1580
23.85890007019043	1615
23.863956212997437	1687
23.868974208831787	1600
23.874023914337158	1575
23.879111766815186	1676
23.884164810180664	1642
23.8891761302948	1573
23.894184112548828	1657
23.899078130722046	1679
23.9041268825531	1585
23.909056901931763	1637
23.914158582687378	1714
23.919159650802612	1628
23.9240882396698	1617
23.929119110107422	1707
23.934038400650024	1665
23.93902039527893	1591
23.944060802459717	1658
23.949060440063477	1645
23.95406937599182	1529
23.9590585231781	1581
23.96399688720703	1663
23.96906614303589	1578
23.974047899246216	1561
23.979141235351562	1656
23.98422861099243	1608
23.989222764968872	1526
23.994183778762817	1601
23.999117136001587	1620
24.00410509109497	1523
24.009145736694336	1570
24.014185428619385	1624
24.019273281097412	1539
24.02418851852417	1525
24.029186248779297	1613
24.034072875976562	1548
24.03904366493225	1401
24.044164180755615	1265
24.04913330078125	1015
24.054279327392578	656
24.05907416343689	630
24.063900470733643	827
24.068705797195435	778
24.073668241500854	689
24.078526258468628	1195
24.083452224731445	2006
24.08847999572754	2555
24.09351086616516	2304
24.098432064056396	1725
24.103405714035034	1463
24.108424186706543	1585
24.113409996032715	1670
24.118408918380737	1528
24.12337636947632	1452
24.128300428390503	1561
24.1332528591156	1559
24.138281106948853	1461
24.14329743385315	1518
24.148290634155273	1554
24.153348445892334	1455
24.15834903717041	1468
24.16325545310974	1550
24.168237924575806	1474
24.173245191574097	1422
24.178248643875122	1509
24.183253049850464	1495
24.18838334083557	1400
24.193362951278687	1457
24.19825506210327	1490
24.203205347061157	1385
24.20829129219055	1389
24.21331810951233	1465
24.218262910842896	1386
24.22330379486084	1334
24.228216648101807	1414
24.233227729797363	1391
24.238196849822998	1286
24.243242263793945	1334
24.248181343078613	1363
24.253139972686768	1251
24.258063554763794	1247
24.26304793357849	1324
24.268022537231445	1251
24.273024082183838	1191
24.278059005737305	1282
24.28303599357605	1278
24.288151264190674	1182
24.293161153793335	1255
24.29820203781128	1311
24.303197145462036	1230
24.308138370513916	1276
24.3132426738739	1416
24.31814455986023	1400
24.323171377182007	1401
24.328269004821777	1545
24.333227396011353	1577
24.338178157806396	1536
24.343206644058228	1651
24.348235607147217	1716
24.35330605506897	1633
