0.00030922889709472656	1718
0.00063323974609375	1676
0.0008969306945800781	1782
0.0010936260223388672	1739
0.0012886524200439453	1634
0.0014798641204833984	1734
0.001743316650390625	1770
0.0019390583038330078	1629
0.0021317005157470703	1668
0.002322673797607422	1779
0.0025115013122558594	1680
0.0026993751525878906	1633
0.0028853416442871094	1748
0.003080606460571289	1711
0.003271341323852539	1612
0.0034618377685546875	1712
0.003652334213256836	1753
0.0038411617279052734	1627
0.004034757614135742	1660
0.0042226314544677734	1749
0.004410982131958008	1659
0.0045986175537109375	1632
0.0047876834869384766	1747
0.0049746036529541016	1708
0.00516200065612793	1620
0.005349874496459961	1730
0.0055370330810546875	1772
0.005794048309326172	1651
0.005997657775878906	1707
0.0061986446380615234	778
0.006413698196411133	674
0.0072095394134521484	670
0.012244939804077148	1061
0.017237186431884766	1814
0.022232532501220703	2590
0.02720785140991211	2476
0.03221416473388672	1765
0.03709697723388672	1517
0.0421905517578125	1745
0.04712843894958496	1762
0.05229949951171875	1566
0.0572199821472168	1587
0.06219077110290527	1647
0.06716609001159668	1569
0.07228255271911621	1583
0.07726836204528809	1652
0.08227992057800293	1564
0.08723592758178711	1512
0.0922091007232666	1613
0.09717345237731934	1590
0.10221672058105469	1488
0.1072852611541748	1555
0.11223363876342773	1594
0.11723518371582031	1491
0.12230324745178223	1512
0.12732887268066406	1591
0.13239002227783203	1509
0.13734889030456543	1465
0.14236664772033691	1552
0.14737510681152344	1520
0.15238094329833984	1427
0.15733051300048828	1504
0.16232895851135254	1533
0.16735100746154785	1409
0.17238855361938477	1426
0.17754101753234863	1497
0.18248581886291504	1405
0.187485933303833	1356
0.19244718551635742	1443
0.19735288619995117	1407
0.20239949226379395	1312
0.2075026035308838	1390
0.21242237091064453	1424
0.21734380722045898	1306
0.22231221199035645	1337
0.22731542587280273	1434
0.2322862148284912	1361
0.23733282089233398	1317
0.24238991737365723	1420
0.24739933013916016	1404
0.2524106502532959	1335
0.25749778747558594	1453
0.2625269889831543	1527
0.26750636100769043	1451
0.272571325302124	1530
0.27756619453430176	1657
0.2825756072998047	1613
0.28754162788391113	1614
0.2926199436187744	1739
0.29752469062805176	1730
0.3026151657104492	1665
0.30766773223876953	1764
0.3127777576446533	1805
0.31775593757629395	1706
0.32269883155822754	1753
0.3275759220123291	1834
0.33261799812316895	1741
0.33756136894226074	1701
0.3426480293273926	1806
0.34771132469177246	1775
0.3527865409851074	1688
0.3577079772949219	1763
0.36271023750305176	1778
0.36770105361938477	1663
0.3727293014526367	1709
0.37775731086730957	1788
0.3827943801879883	1692
0.3878438472747803	1659
0.39278483390808105	1757
0.39779162406921387	1714
0.4027576446533203	1629
0.40776515007019043	1719
0.41274595260620117	1744
0.4177968502044678	1625
0.42285871505737305	1662
0.4278221130371094	1753
0.43283605575561523	1663
0.437929630279541	1638
0.44295215606689453	1738
0.4480094909667969	1689
0.4530022144317627	1619
0.45798492431640625	1721
0.46297264099121094	1740
0.4679419994354248	1626
0.47298216819763184	1675
0.4779949188232422	1759
0.4830284118652344	1668
0.4881019592285156	1646
0.4929165840148926	1738
0.49799418449401855	1690
0.5030276775360107	1629
0.508044958114624	1721
0.5130655765533447	1733
0.5180826187133789	1631
0.5230724811553955	1688
0.5280964374542236	1765
0.533045768737793	1673
0.5380856990814209	1663
0.5431041717529297	1765
0.5482044219970703	1724
0.5532717704772949	1664
0.5581789016723633	1754
0.5631654262542725	1758
0.5681459903717041	1657
0.5733144283294678	1724
0.5784404277801514	1780
0.5834898948669434	1663
0.5884842872619629	1638
0.5933680534362793	1722
0.5984692573547363	1659
0.6034221649169922	1594
0.6084768772125244	1694
0.6134908199310303	1699
0.6184704303741455	1589
0.6234533786773682	1652
0.628411054611206	1712
0.633371114730835	1604
0.6384506225585938	1597
0.6434309482574463	1695
0.6485815048217773	1624
0.6535255908966064	1560
0.6583991050720215	1644
0.6634643077850342	1623
0.6684212684631348	1361
0.6735208034515381	1164
0.678478479385376	989
0.6833829879760742	801
0.6882867813110352	806
0.6931581497192383	838
0.6980133056640625	628
0.702918529510498	846
0.7078254222869873	1787
0.7128400802612305	2671
0.7178528308868408	2390
0.7228074073791504	1746
0.727665901184082	1598
0.7326765060424805	1664
0.7376625537872314	1691
0.7426867485046387	1698
0.7477715015411377	1606
0.7527792453765869	1532
0.7577798366546631	1640
0.762763500213623	1655
0.7676775455474854	1538
0.7727386951446533	1580
0.7778027057647705	1654
0.7828488349914551	1553
0.7879147529602051	1536
0.7928323745727539	1647
0.7978031635284424	1579
0.8028266429901123	1488
0.8078429698944092	1586
0.8128342628479004	1594
0.8177754878997803	1478
0.8227431774139404	1537
0.8276791572570801	1613
0.8327441215515137	1486
0.8377187252044678	1457
0.8427398204803467	1570
0.8477621078491211	1506
0.8527600765228271	1404
0.8576617240905762	1508
0.862617015838623	1514
0.8676245212554932	1375
0.8726897239685059	1422
0.8776838779449463	1501
0.8826956748962402	1372
0.8877284526824951	1339
0.8926486968994141	1448
0.8975989818572998	1373
0.9026095867156982	1272
0.9076621532440186	1389
0.912726879119873	1411
0.9177274703979492	1272
0.9226782321929932	1326
0.9276919364929199	1418
0.9327170848846436	1302
0.9377322196960449	1296
0.9428033828735352	1439
0.9478573799133301	1404
0.95279860496521	1360
0.9577188491821289	1526
0.962754487991333	1578
0.9676740169525146	1488
0.9727511405944824	1605
0.9777390956878662	1732
0.9827413558959961	1630
0.9877734184265137	1634
0.9927282333374023	1790
0.9977164268493652	1744
1.0027997493743896	1657
1.007929801940918	1790
1.0129148960113525	1809
1.017932653427124	1679
1.0230064392089844	1758
1.0279948711395264	1836
1.0329573154449463	1706
1.0378665924072266	1695
1.042896032333374	1827
1.0479226112365723	1752
1.0529637336730957	1652
1.0580170154571533	1766
1.0629768371582031	1775
1.0679330825805664	1644
1.072925329208374	1715
1.0778956413269043	1796
1.0829112529754639	1658
1.0879206657409668	1642
1.0928053855895996	1775
1.097825288772583	1708
1.1028556823730469	1608
1.1079299449920654	1726
1.1128382682800293	1749
1.117901086807251	1610
1.1229324340820312	1674
1.1279182434082031	1765
1.1328554153442383	1644
1.1379163265228271	1628
1.142958164215088	1759
1.1479885578155518	1696
1.1530275344848633	1607
1.1579570770263672	1724
1.1629462242126465	1749
1.1679177284240723	1618
1.172950267791748	1673
1.1779143810272217	1763
1.182920217514038	1659
1.1878941059112549	1636
1.1928718090057373	1751
1.1978483200073242	1701
1.2028489112854004	1610
1.2079126834869385	1714
1.2128922939300537	1743
1.2179596424102783	1616
1.2229859828948975	1662
1.2279508113861084	1755
1.2330868244171143	1644
1.238145112991333	1625
1.2431070804595947	1740
1.248122215270996	1690
1.2531664371490479	1603
1.258174180984497	1700
1.2630345821380615	1729
1.2679944038391113	1607
1.2730672359466553	1650
1.2782526016235352	1737
1.283259630203247	1630
1.2882652282714844	1605
1.293175458908081	1708
1.2982101440429688	1682
1.303253173828125	1584
1.3082902431488037	1643
1.3134160041809082	1709
1.3184044361114502	1616
1.323448657989502	1612
1.328385829925537	1704
1.3333680629730225	1651
1.3383965492248535	1584
1.3434138298034668	1676
1.34834885597229	1682
1.3533389568328857	1587
1.3583877086639404	1649
1.36342453956604	1715
1.3684074878692627	1624
1.373495101928711	1623
1.378450870513916	1720
1.3834755420684814	1667
1.388524055480957	1609
1.3934085369110107	1680
1.3984718322753906	1675
1.4034950733184814	1574
1.4084875583648682	1625
1.4134204387664795	1678
1.4184520244598389	1575
1.4234695434570312	1577
1.4284040927886963	1668
1.4334287643432617	1610
1.438403606414795	1562
1.4433934688568115	1653
1.448415994644165	1634
1.4533662796020508	1526
1.4583375453948975	1593
1.463303804397583	1649
1.468275547027588	1540
1.473371982574463	1559
1.478313684463501	1658
1.4834117889404297	1570
1.4884264469146729	1429
1.493253469467163	1285
1.498321294784546	959
1.5031781196594238	697
1.5081312656402588	845
1.5130903720855713	992
1.5179433822631836	743
1.522778034210205	715
1.5275797843933105	1259
1.5326168537139893	1990
1.5376012325286865	2457
1.5426154136657715	2157
1.5476319789886475	1632
1.5526528358459473	1455
1.5576460361480713	1636
1.562706708908081	1704
1.567704200744629	1540
1.5727999210357666	1524
1.5777924060821533	1638
1.5827932357788086	1567
1.5878851413726807	1500
1.5927441120147705	1596
1.5977039337158203	1584
1.6026973724365234	1475
1.607776165008545	1546
1.6127877235412598	1597
1.6178836822509766	1477
1.62290358543396	1489
1.6278316974639893	1583
1.6327948570251465	1503
1.637836217880249	1453
1.6427772045135498	1559
1.6477859020233154	1531
1.652876615524292	1416
1.6577632427215576	1496
1.6628003120422363	1538
1.6678099632263184	1407
1.6728758811950684	1429
1.6779279708862305	1521
1.6830058097839355	1416
1.68806791305542	1357
1.693002700805664	1474
1.697979211807251	1424
1.7029519081115723	1299
1.7079648971557617	1377
1.7130022048950195	1405
1.717982292175293	1271
1.7230148315429688	1297
1.7280020713806152	1390
1.7330334186553955	1288
1.7380039691925049	1238
1.7430322170257568	1362
1.748072862625122	1324
1.7530736923217773	1215
1.758056879043579	1319
1.763021469116211	1369
1.7681806087493896	1259
1.7731764316558838	1337
1.778120994567871	1476
1.7831566333770752	1414
1.7880878448486328	1419
1.7930517196655273	1586
1.7979986667633057	1590
1.8030271530151367	1524
1.808068037033081	1657
1.8131742477416992	1720
1.8181579113006592	1614
1.8230996131896973	1676
1.8279995918273926	1780
1.8330693244934082	1685
1.8380827903747559	1661
1.8430330753326416	1781
1.8480846881866455	1742
1.853102684020996	1651
1.8580808639526367	1751
1.863051176071167	1779
1.8680698871612549	1660
1.8731193542480469	1704
1.8780670166015625	1789
1.8831441402435303	1679
1.8880949020385742	1651
1.893021583557129	1768
1.8980576992034912	1709
1.9030044078826904	1605
1.9080121517181396	1715
1.9129760265350342	1752
1.917963981628418	1622
1.92280912399292	1665
1.927799940109253	1759
1.932875156402588	1647
1.9377706050872803	1607
1.9428091049194336	1727
1.94783616065979	1686
1.9528110027313232	1583
1.957768201828003	1690
1.9627761840820312	1726
1.967806339263916	1596
1.972841739654541	1648
1.9777755737304688	1746
1.9828343391418457	1636
1.9878263473510742	1609
1.9927258491516113	1740
1.9977717399597168	1697
2.0027389526367188	1594
2.007760763168335	1695
2.0127501487731934	1731
2.0177626609802246	1605
2.022698163986206	1651
2.0276057720184326	1757
2.0326197147369385	1648
2.037588119506836	1606
2.0426156520843506	1732
2.0476624965667725	1696
2.052682876586914	1587
2.0576415061950684	1692
2.062623977661133	1738
2.0676522254943848	1615
2.072669267654419	1651
2.0776705741882324	1746
2.0826308727264404	1645
2.087648630142212	1601
2.092556953430176	1724
2.0976016521453857	1692
2.102626085281372	1581
2.107703447341919	1684
2.1127030849456787	1725
2.1177122592926025	1593
2.1227128505706787	1634
2.1276752948760986	1739
2.1327123641967773	1635
2.137662649154663	1587
2.142789602279663	1709
2.147806167602539	1682
2.152799367904663	1575
2.1577556133270264	1669
2.162752389907837	1710
2.1677780151367188	1587
2.1727375984191895	1620
2.17771053314209	1722
2.1827306747436523	1632
2.1877052783966064	1585
2.192595958709717	1705
2.197567939758301	1676
2.2026755809783936	1565
2.2077012062072754	1663
2.212740898132324	1708
2.2178032398223877	1578
2.222804307937622	1608
2.2277560234069824	1699
2.2328176498413086	1602
2.237839937210083	1566
2.2428131103515625	1690
2.2478220462799072	1660
2.2527849674224854	1554
2.2577173709869385	1642
2.262732982635498	1686
2.2677009105682373	1556
2.272721290588379	1579
2.2776713371276855	1674
2.28269362449646	1580
2.287743330001831	1523
2.292607307434082	1623
2.2975809574127197	1597
2.302607297897339	1529
2.3077006340026855	1650
2.3128037452697754	1676
2.3177995681762695	1533
2.3227908611297607	1566
2.3277182579040527	1683
2.332771062850952	1599
2.3378028869628906	1555
2.342815399169922	1672
2.3479435443878174	1643
2.3529422283172607	1552
2.357924699783325	1654
2.3629140853881836	1684
2.3678808212280273	1560
2.372868776321411	1601
2.377864360809326	1694
2.38295578956604	1597
2.3879387378692627	1571
2.3928494453430176	1700
2.3978402614593506	1666
2.402886390686035	1408
2.407958507537842	1208
2.4129467010498047	936
2.4178483486175537	707
2.422729969024658	772
2.4276113510131836	739
2.432565689086914	532
2.4374091625213623	786
2.4423136711120605	1619
2.447371006011963	2454
2.452364444732666	2353
2.4573068618774414	1813
2.4622485637664795	1575
2.4672274589538574	1527
2.4723751544952393	1624
2.4774181842803955	1708
2.482468366622925	1595
2.487511396408081	1531
2.492450714111328	1646
2.497434616088867	1634
2.5024280548095703	1517
2.507471799850464	1582
2.512505054473877	1641
2.517536163330078	1529
2.5225138664245605	1518
2.5274975299835205	1611
2.532471179962158	1553
2.5374555587768555	1479
2.542539119720459	1559
2.5475852489471436	1570
2.5526340007781982	1463
2.5575804710388184	1512
2.5625064373016357	1568
2.567682981491089	1458
2.5727555751800537	1447
2.5776731967926025	1532
2.5826385021209717	1473
2.5876708030700684	1400
2.5925214290618896	1480
2.5974862575531006	1478
2.602543592453003	1363
2.607591152191162	1414
2.612616777420044	1454
2.617673873901367	1331
2.6226322650909424	1320
2.6275546550750732	1415
2.632650375366211	1336
2.6376001834869385	1260
2.6426656246185303	1353
2.6477410793304443	1340
2.652709484100342	1243
2.6577160358428955	1326
2.662631034851074	1387
2.667651414871216	1274
2.672701597213745	1295
2.677706003189087	1411
2.6827409267425537	1358
2.6877832412719727	1331
2.6926634311676025	1470
2.697746515274048	1496
2.702834367752075	1438
2.707902193069458	1569
2.7129054069519043	1656
2.7179877758026123	1576
2.723026752471924	1622
2.727973699569702	1727
2.7330684661865234	1658
2.7380897998809814	1639
2.743056535720825	1754
2.748162031173706	1718
2.7531633377075195	1629
2.75821590423584	1723
2.7632298469543457	1761
2.768176555633545	1640
2.7732455730438232	1681
2.7782416343688965	1775
2.78326416015625	1677
2.7883169651031494	1638
2.793205738067627	1747
2.7982168197631836	1706
2.8031845092773438	1609
2.8081648349761963	1699
2.8131139278411865	1739
2.8181567192077637	1614
2.8231306076049805	1649
2.8282055854797363	1755
2.8333628177642822	1661
2.8383100032806396	1628
2.8433003425598145	1725
2.8482868671417236	1680
2.853282928466797	1577
2.858236312866211	1668
2.8632359504699707	1711
2.8682031631469727	1597
2.873300075531006	1635
2.8782973289489746	1717
2.883303642272949	1611
2.8882906436920166	1578
2.8933043479919434	1695
2.8983235359191895	1659
2.9033656120300293	1580
2.9084229469299316	1689
2.9134347438812256	1710
2.91841721534729	1583
2.9233932495117188	1637
2.9282782077789307	1728
2.9332218170166016	1619
2.938297986984253	1578
2.9432835578918457	1704
2.9483039379119873	1660
2.95327091217041	1555
2.958268165588379	1659
2.963263511657715	1687
2.968261957168579	1565
2.9733188152313232	1623
2.978278875350952	1717
2.9833333492279053	1597
2.9884157180786133	1568
2.9932801723480225	1701
2.998352289199829	1653
3.0032906532287598	1560
3.0083417892456055	1678
3.013312339782715	1699
3.018369436264038	1553
3.0233917236328125	1619
3.0284082889556885	1721
3.0334084033966064	1585
3.0384795665740967	1554
3.0434882640838623	1692
3.048515796661377	1635
3.053516387939453	1537
3.0584700107574463	1661
3.063533067703247	1685
3.0685808658599854	1544
3.073698043823242	1612
3.0787014961242676	1691
3.083799123764038	1560
3.088822841644287	1560
3.0936906337738037	1688
3.098722457885742	1606
3.1036953926086426	1511
3.1087334156036377	1640
3.113771677017212	1655
3.118779420852661	1527
3.1238698959350586	1616
3.128859281539917	1691
3.133870840072632	1548
3.1389434337615967	1552
3.1438944339752197	1696
3.1489133834838867	1611
3.153996467590332	1514
3.158977508544922	1610
3.1639766693115234	1587
3.1689813137054443	1474
3.1740267276763916	1585
3.1790611743927	1648
3.1840524673461914	1483
3.1890666484832764	1482
3.194003105163574	1629
3.1989636421203613	1577
3.20395565032959	1526
3.2090184688568115	1630
3.214082717895508	1596
3.219122886657715	1468
3.2240774631500244	1582
3.229203701019287	1656
3.2341840267181396	1525
3.2392513751983643	1550
3.244319438934326	1665
3.249336004257202	1572
3.2543299198150635	1541
3.259312629699707	1677
3.2642366886138916	1633
3.2692482471466064	1491
3.2743380069732666	1602
3.27927303314209	1659
3.284304141998291	1538
3.2892425060272217	1592
3.2941277027130127	1670
3.2992234230041504	1345
3.3041930198669434	971
3.3092453479766846	827
3.314152479171753	749
3.3190200328826904	659
3.323991060256958	611
3.3288075923919678	637
3.3336567878723145	948
3.3386411666870117	1742
3.3436381816864014	2578
3.348632574081421	2306
3.3536758422851562	1620
3.358661413192749	1565
3.363678455352783	1665
3.3686254024505615	1580
3.3737027645111084	1629
3.3786962032318115	1675
3.3837625980377197	1518
3.38883900642395	1524
3.3938591480255127	1645
3.3989646434783936	1540
3.4039220809936523	1463
3.409064292907715	1596
3.4140610694885254	1580
3.4190547466278076	1461
3.4240646362304688	1571
3.4290246963500977	1638
3.433961868286133	1492
3.4389917850494385	1486
3.443969964981079	1568
3.448913812637329	1458
3.4538798332214355	1402
3.4588706493377686	1552
3.4638664722442627	1529
3.4688308238983154	1382
3.4737730026245117	1470
3.478785991668701	1532
3.4838979244232178	1396
3.4888899326324463	1415
3.49383807182312	1519
3.498749256134033	1392
3.5036842823028564	1302
3.508873701095581	1439
3.513835906982422	1431
3.518810272216797	1283
3.523782730102539	1356
3.5287609100341797	1403
3.5336568355560303	1237
3.5386083126068115	1238
3.543668746948242	1390
3.5487236976623535	1323
3.553729772567749	1239
3.5587258338928223	1358
3.563739538192749	1375
3.568711042404175	1269
3.57373309135437	1376
3.5787158012390137	1450
3.583777666091919	1334
3.58878493309021	1382
3.5937042236328125	1556
3.5986592769622803	1517
3.6037397384643555	1490
3.6086819171905518	1648
3.6137664318084717	1679
3.618767499923706	1578
3.623814582824707	1671
3.6286816596984863	1754
3.633681058883667	1649
3.6387314796447754	1672
3.64369535446167	1807
3.6487202644348145	1731
3.6539037227630615	1647
3.658740758895874	1777
3.663733959197998	1783
3.6687936782836914	1662
3.673809289932251	1747
3.6788716316223145	1819
3.683896064758301	1682
3.6889522075653076	1687
3.693913459777832	1798
3.698863983154297	1711
3.7039029598236084	1640
3.7089805603027344	1764
3.7140238285064697	1751
3.719053268432617	1627
3.723989248275757	1718
3.7289443016052246	1779
3.7337851524353027	1641
3.7387783527374268	1657
3.743713617324829	1788
3.7487640380859375	1709
3.75373911857605	1621
3.758716106414795	1739
3.7636849880218506	1739
3.7686569690704346	1609
3.773772716522217	1689
3.7787232398986816	1768
3.7837953567504883	1639
3.788848400115967	1636
3.7936980724334717	1757
3.7986996173858643	1692
3.8037304878234863	1622
3.8086910247802734	1736
3.813655376434326	1734
3.818718433380127	1610
3.8237879276275635	1693
3.828676700592041	1772
3.8336682319641113	1652
3.838726043701172	1651
3.8437163829803467	1764
3.8487470149993896	1682
3.853785514831543	1606
3.8587119579315186	1736
3.8637032508850098	1739
3.868682384490967	1613
3.873749017715454	1704
3.8787920475006104	1774
3.8837897777557373	1638
3.8888437747955322	1640
3.893726110458374	1761
3.898797035217285	1683
3.9037792682647705	1619
3.908842086791992	1745
3.913832426071167	1729
3.9188432693481445	1585
3.923854112625122	1677
3.9288525581359863	1751
3.9338414669036865	1619
3.938849925994873	1632
3.943845272064209	1756
3.948946952819824	1667
3.95397686958313	1594
3.9589602947235107	1718
3.963941812515259	1696
3.968903064727783	1573
3.9738988876342773	1674
3.9788646697998047	1735
3.9838762283325195	1594
3.9888906478881836	1598
3.9938583374023438	1711
3.998847246170044	1609
4.003799200057983	1528
4.008760690689087	1652
4.01384162902832	1679
4.018834590911865	1584
4.0238776206970215	1666
4.028757095336914	1701
4.033755779266357	1566
4.038829803466797	1599
4.04376745223999	1724
4.048732042312622	1642
4.053842067718506	1575
4.058714866638184	1706
4.063683032989502	1709
4.068601369857788	1590
4.073657274246216	1663
4.078740835189819	1733
4.083723783493042	1612
4.088577032089233	1614
4.093569040298462	1722
4.0985729694366455	1648
4.103703737258911	1584
4.10867166519165	1710
4.113680839538574	1634
4.118719100952148	1283
4.12375545501709	1079
4.128809928894043	932
4.133651971817017	782
4.138711214065552	792
4.14361047744751	742
4.148557901382446	644
4.153456211090088	1115
4.158434152603149	2188
4.163390398025513	2737
4.168365001678467	2102
4.173419952392578	1609
4.178534984588623	1683
4.1835997104644775	1692
4.188612937927246	1668
4.19349217414856	1712
4.198477506637573	1620
4.2034478187561035	1551
4.208501577377319	1682
4.213592767715454	1691
4.21860671043396	1545
4.223611354827881	1596
4.228597164154053	1673
4.233686685562134	1570
4.238612413406372	1563
4.243622541427612	1673
4.248634338378906	1585
4.2536940574646	1488
4.258669137954712	1596
4.263733863830566	1606
4.268717288970947	1478
4.273700952529907	1552
4.2786829471588135	1613
4.283780097961426	1472
4.288740873336792	1460
4.293671607971191	1577
4.298754930496216	1494
4.303812026977539	1413
4.308870792388916	1526
4.313920259475708	1511
4.318976163864136	1366
4.323977947235107	1435
4.329011917114258	1488
4.33397364616394	1339
4.339210271835327	1332
4.344138145446777	1421
4.349260568618774	1333
4.354243040084839	1284
4.359190225601196	1398
4.36419677734375	1362
4.369198322296143	1241
4.374353647232056	1340
4.379372835159302	1398
4.384423494338989	1275
4.3894264698028564	1313
4.394312381744385	1438
4.399358034133911	1361
4.4044342041015625	1350
4.4094531536102295	1532
4.414385795593262	1560
4.419545412063599	1493
4.4244396686553955	1628
4.429388523101807	1717
4.434360980987549	1621
4.439428091049194	1677
4.44447660446167	1802
4.449506521224976	1723
4.4546403884887695	1695
4.459639310836792	1827
4.464690685272217	1787
4.469627141952515	1682
4.4746997356414795	1803
4.479700326919556	1863
4.484744310379028	1721
4.489716053009033	1737
4.494631290435791	1831
4.499621868133545	1741
4.5046937465667725	1702
4.509799242019653	1823
4.514830589294434	1771
4.51982045173645	1655
4.524744272232056	1747
4.529723644256592	1791
4.534785985946655	1673
4.539881229400635	1713
4.544929265975952	1801
4.549982786178589	1696
4.555057764053345	1661
4.559936761856079	1779
4.5649518966674805	1730
4.569967985153198	1631
4.575001001358032	1740
4.579955339431763	1774
4.584991455078125	1646
4.589972972869873	1693
4.594954013824463	1787
4.599944114685059	1681
4.605027198791504	1656
4.610058069229126	1785
4.61529803276062	1724
4.620274543762207	1629
4.625262498855591	1743
4.630244731903076	1758
4.635229587554932	1620
4.640308618545532	1687
4.645331621170044	1776
4.650370121002197	1653
4.655447483062744	1643
4.660362720489502	1774
4.66538405418396	1718
4.670320987701416	1634
4.67531681060791	1734
4.680400848388672	1732
4.685377597808838	1601
4.690401792526245	1671
4.695366859436035	1767
4.700352668762207	1651
4.705455541610718	1638
4.710475206375122	1746
4.715464115142822	1675
4.720472574234009	1605
4.7253663539886475	1722
4.730363607406616	1729
4.735387802124023	1600
4.740426063537598	1659
4.745405435562134	1732
4.750423431396484	1624
4.755495071411133	1632
4.760387420654297	1744
4.765429973602295	1653
4.770555257797241	1566
4.7755091190338135	1681
4.780519247055054	1674
4.785624265670776	1543
4.79055380821228	1610
4.795554876327515	1674
4.800614595413208	1550
4.805713176727295	1580
4.810628890991211	1714
4.8156609535217285	1623
4.8206565380096436	1533
4.825592994689941	1653
4.83067774772644	1667
4.835705280303955	1557
4.840714454650879	1640
4.845901966094971	1711
4.850826978683472	1592
4.8558056354522705	1607
4.8607871532440186	1722
4.865803003311157	1628
4.8707709312438965	1559
4.875844955444336	1679
4.880795001983643	1676
4.885844707489014	1558
4.890668153762817	1631
4.8956239223480225	1696
4.900654077529907	1577
4.905750513076782	1475
4.910750865936279	1324
4.915730714797974	936
4.92070198059082	691
4.925539493560791	873
4.930406093597412	1005
4.935412883758545	751
4.940445423126221	791
4.945370435714722	1373
4.950350761413574	2114
4.955396413803101	2537
4.9603657722473145	2171
4.965376138687134	1610
4.970373153686523	1497
4.975367546081543	1721
4.980380296707153	1719
4.985374450683594	1525
4.99036169052124	1574
4.995311260223389	1673
5.000300645828247	1560
5.005326271057129	1529
5.010322332382202	1645
5.015321254730225	1588
5.020406007766724	1485
5.025345087051392	1587
5.030334711074829	1601
5.035332202911377	1472
5.04041314125061	1530
5.045334339141846	1609
5.050384044647217	1488
5.055477619171143	1472
5.060361623764038	1591
5.065378427505493	1516
5.0704262256622314	1418
5.075469970703125	1530
5.080540418624878	1538
5.0854668617248535	1400
5.090413570404053	1450
5.095430850982666	1520
5.100439548492432	1382
5.105443477630615	1349
5.110515356063843	1458
5.115509510040283	1378
5.120488405227661	1273
5.125442266464233	1370
5.130420446395874	1367
5.135411262512207	1227
5.140446662902832	1277
5.1454973220825195	1347
5.150516986846924	1218
5.155498504638672	1212
5.160488605499268	1336
5.165523052215576	1262
5.170624256134033	1188
5.175705671310425	1326
5.180702209472656	1339
5.1858580112457275	1236
5.190890312194824	1367
5.195785999298096	1487
5.200769424438477	1410
5.205897092819214	1466
5.210878133773804	1634
5.215871572494507	1598
5.220895767211914	1573
5.225840330123901	1726
5.230794906616211	1744
5.235754728317261	1639
5.240756511688232	1732
5.245706081390381	1817
5.250706672668457	1702
5.255735874176025	1705
5.260738849639893	1831
5.265719413757324	1756
5.27081036567688	1687
5.2758402824401855	1807
5.280916690826416	1795
5.28596568107605	1669
5.290829420089722	1751
5.295813083648682	1815
5.30087685585022	1678
5.305815696716309	1682
5.3108203411102295	1795
5.3158814907073975	1706
5.320842504501343	1631
5.32583212852478	1752
5.330819845199585	1736
5.335835933685303	1611
5.340858459472656	1695
5.345831632614136	1763
5.350841283798218	1637
5.355875730514526	1639
5.360724210739136	1750
5.365771293640137	1675
5.370849609375	1611
5.375858783721924	1730
5.380845546722412	1717
5.385916233062744	1596
5.390900135040283	1689
5.3957600593566895	1766
5.400733947753906	1637
5.405823230743408	1641
5.410815715789795	1761
5.41580605506897	1690
5.420830965042114	1620
5.425823211669922	1736
5.430788278579712	1726
5.435779809951782	1612
5.440901041030884	1700
5.445819854736328	1766
5.450913906097412	1634
5.455944299697876	1644
5.460887908935547	1768
5.465864419937134	1680
5.47098183631897	1616
5.475980520248413	1736
5.481009006500244	1726
5.48603630065918	1603
5.4909820556640625	1692
5.495998859405518	1754
5.501062393188477	1626
5.506114959716797	1644
5.511118173599243	1755
5.516300678253174	1661
5.521324634552002	1611
5.526180267333984	1731
5.531235218048096	1700
5.536172151565552	1581
5.54123592376709	1679
5.5463173389434814	1738
5.551291465759277	1609
5.556406259536743	1628
5.561157464981079	1738
5.566194772720337	1647
5.571164131164551	1587
5.5762364864349365	1717
5.5812389850616455	1698
5.586261510848999	1569
5.591253280639648	1668
5.59621262550354	1724
5.601235628128052	1591
5.606276035308838	1620
5.611272573471069	1727
5.616273880004883	1631
5.621274471282959	1576
5.626189470291138	1701
5.631239175796509	1679
5.636198282241821	1556
5.641230583190918	1650
5.646245002746582	1709
5.651315212249756	1572
5.65628457069397	1584
5.661186456680298	1689
5.666248083114624	1596
5.671192407608032	1539
5.676252603530884	1659
5.681317090988159	1617
5.686351299285889	1484
5.691306114196777	1610
5.69643497467041	1699
5.701382398605347	1561
5.706431150436401	1577
5.711458921432495	1683
5.716498851776123	1594
5.721508264541626	1567
5.726437091827393	1696
5.7315239906311035	1657
5.736513614654541	1549
5.74173641204834	1671
5.746715784072876	1704
5.751848936080933	1560
5.756944417953491	1607
5.761838436126709	1704
5.766931772232056	1590
5.771887302398682	1572
5.776872873306274	1691
5.781938314437866	1632
5.786925315856934	1537
5.791848182678223	1563
5.796804428100586	1320
5.801812410354614	843
5.806760311126709	663
5.8115928173065186	802
5.816494464874268	836
5.821515798568726	696
5.826337099075317	807
5.8311896324157715	1249
5.836297988891602	1930
5.841306209564209	2599
5.84630274772644	2334
5.851332426071167	1630
5.85627555847168	1526
5.861187219619751	1733
5.86625862121582	1657
5.871274471282959	1532
5.876223087310791	1636
5.881263256072998	1637
5.886254549026489	1514
5.891228914260864	1586
5.896235227584839	1638
5.901211261749268	1507
5.906235456466675	1508
5.9112279415130615	1634
5.9162468910217285	1556
5.921278953552246	1476
5.926266431808472	1582
5.93119478225708	1571
5.936192274093628	1450
5.941257953643799	1520
5.946309328079224	1584
5.951299428939819	1455
5.956372499465942	1445
5.961221694946289	1552
5.966258525848389	1474
5.9712536334991455	1400
5.976249694824219	1501
5.981197834014893	1479
5.986274719238281	1347
5.991197824478149	1422
5.9961981773376465	1489
6.001179933547974	1353
6.006139039993286	1336
6.0112035274505615	1429
6.016254425048828	1336
6.021260976791382	1255
6.026232004165649	1365
6.031183242797852	1346
6.036237478256226	1212
6.041254043579102	1300
6.046357154846191	1384
6.051344633102417	1251
6.056443452835083	1261
6.061537027359009	1388
6.066729307174683	1319
6.0717339515686035	1306
6.076720714569092	1452
6.081695079803467	1449
6.086690187454224	1366
6.0917558670043945	1518
6.09673285484314	1625
6.101823806762695	1530
6.1069114208221436	1593
6.1119630336761475	1730
6.117076873779297	1652
6.1221137046813965	1631
6.1269896030426025	1774
6.132023572921753	1746
6.137022018432617	1652
6.142102956771851	1759
6.1470842361450195	1797
6.152083873748779	1665
6.156994581222534	1710
6.162014722824097	1819
6.167003870010376	1700
6.1720499992370605	1651
6.177108287811279	1788
6.182103157043457	1753
6.1871232986450195	1639
6.192068815231323	1740
6.19710898399353	1773
6.202051401138306	1635
6.207151174545288	1682
6.212179899215698	1790
6.217252492904663	1669
6.222301721572876	1620
6.227214097976685	1744
6.232254266738892	1692
6.23727822303772	1593
6.2422544956207275	1712
6.247287034988403	1740
6.252384901046753	1597
6.257269382476807	1663
6.262337923049927	1763
6.267327547073364	1636
6.2723071575164795	1604
6.277296781539917	1739
6.282258749008179	1697
6.287210702896118	1592
6.292356967926025	1708
6.29725980758667	1752
6.302242279052734	1616
6.307358026504517	1657
6.312316417694092	1759
6.31725549697876	1639
6.32226037979126	1597
6.327111005783081	1744
6.332124948501587	1716
6.33722710609436	1596
6.342252492904663	1705
6.347228288650513	1746
6.352242708206177	1598
6.3572564125061035	1641
6.3621954917907715	1759
6.367218017578125	1651
6.372271299362183	1604
6.377329587936401	1734
6.382320880889893	1698
6.38727068901062	1584
6.392239332199097	1692
6.397233247756958	1741
6.402231216430664	1586
6.407334804534912	1629
6.412381410598755	1743
6.417439937591553	1631
6.422472953796387	1593
6.4274961948394775	1726
6.432521343231201	1671
6.43743109703064	1570
6.442455053329468	1683
6.4474852085113525	1711
6.452465772628784	1568
6.457422494888306	1620
6.462483882904053	1724
6.467438697814941	1603
6.472509860992432	1569
6.477529287338257	1711
6.482532024383545	1657
6.487483501434326	1546
6.492438077926636	1654
6.497432231903076	1682
6.50243067741394	1536
6.507542610168457	1588
6.512534856796265	1685
6.517589092254639	1554
6.5226500034332275	1501
6.527619361877441	1643
6.532627820968628	1634
6.537704944610596	1550
6.5426671504974365	1639
6.547725677490234	1660
6.552764415740967	1536
6.557719945907593	1602
6.562732219696045	1698
6.56772780418396	1588
6.572691440582275	1560
6.577756643295288	1692
6.582805633544922	1646
6.587759971618652	1555
6.592821359634399	1656
6.597802400588989	1665
6.602735757827759	1541
6.607741594314575	1613
6.612789630889893	1694
6.617796897888184	1571
6.6227028369903564	1557
6.627728700637817	1666
6.632757186889648	1455
6.637742519378662	1086
6.642850399017334	886
6.647738695144653	711
6.65269660949707	620
6.657515287399292	754
6.662408113479614	719
6.667346239089966	667
6.672352075576782	1314
6.677314519882202	2390
6.682300567626953	2649
6.687349081039429	1963
6.69228458404541	1624
6.697249412536621	1680
6.702241659164429	1647
6.707242250442505	1647
6.712335586547852	1659
6.717300891876221	1532
6.722275733947754	1537
6.727272987365723	1662
6.732271432876587	1586
6.737228631973267	1476
6.742258071899414	1589
6.747289419174194	1616
6.752309083938599	1481
6.7572760581970215	1529
6.762274742126465	1601
6.7673180103302	1477
6.772363901138306	1462
6.777446746826172	1588
6.782500982284546	1517
6.787562847137451	1420
6.7924933433532715	1531
6.7974934577941895	1545
6.802455425262451	1408
6.8074891567230225	1460
6.812471866607666	1532
6.817559719085693	1408
6.822593688964844	1381
6.827540397644043	1494
6.832498550415039	1412
6.837453126907349	1300
6.842498540878296	1403
6.847529888153076	1416
6.852489471435547	1264
6.85746431350708	1303
6.862555980682373	1386
6.867573976516724	1265
6.872507333755493	1230
6.8774755001068115	1355
6.882530212402344	1305
6.887545585632324	1207
6.892470359802246	1321
6.8974597454071045	1358
6.9025490283966064	1231
6.90759801864624	1305
6.912570238113403	1430
6.917659282684326	1346
6.9226648807525635	1352
6.927618980407715	1530
6.932610034942627	1531
6.937607288360596	1479
6.942598819732666	1630
6.947606086730957	1703
6.9526495933532715	1600
6.957719564437866	1684
6.9626641273498535	1796
6.967782735824585	1687
6.97283411026001	1679
6.977854013442993	1821
6.9828715324401855	1776
6.987828969955444	1689
6.99284291267395	1802
6.997873067855835	1815
7.002894163131714	1683
7.007909297943115	1757
7.012973308563232	1841
7.0179948806762695	1717
7.022966384887695	1706
7.027932643890381	1827
7.032995700836182	1759
7.037971258163452	1665
7.043044090270996	1782
7.048117637634277	1785
7.053076982498169	1649
7.058200836181641	1723
7.063185930252075	1789
7.068195819854736	1655
7.0731284618377686	1657
7.078185558319092	1784
7.083248138427734	1703
7.088245153427124	1622
7.093085050582886	1741
7.098249197006226	1753
7.103194952011108	1635
7.1081953048706055	1713
7.113234758377075	1775
7.118128538131714	1649
7.123172283172607	1653
7.128173828125	1780
7.13310170173645	1708
7.138092517852783	1624
7.143219470977783	1751
7.148245573043823	1766
7.15323281288147	1635
7.158172369003296	1705
7.163171291351318	1789
7.168171644210815	1664
7.173309564590454	1652
7.178315877914429	1777
7.1833343505859375	1709
7.188480615615845	1629
7.193421125411987	1744
7.1984546184539795	1744
7.203375816345215	1620
7.208466291427612	1693
7.213507175445557	1765
7.218575477600098	1645
7.2236480712890625	1666
7.228540420532227	1779
7.23355770111084	1682
7.238576650619507	1616
7.2435150146484375	1738
7.248605728149414	1726
7.253643989562988	1610
7.258572101593018	1699
7.263543367385864	1757
7.268675804138184	1625
7.273797512054443	1647
7.27878999710083	1748
7.2839014530181885	1644
7.288832664489746	1583
7.2937171459198	1699
7.298732042312622	1669
7.303711891174316	1537
7.308640003204346	1634
7.313753366470337	1733
7.318829774856567	1616
7.323845863342285	1619
7.328789234161377	1708
7.3337788581848145	1619
7.33881139755249	1583
7.343825817108154	1712
7.348918437957764	1679
7.353876113891602	1569
7.358920335769653	1669
7.363905191421509	1729
7.368893623352051	1597
7.374006509780884	1628
7.378967046737671	1732
7.384096145629883	1634
7.3891143798828125	1598
7.3940370082855225	1720
7.3990747928619385	1678
7.404075384140015	1568
7.409264087677002	1669
7.414285659790039	1568
7.41934061050415	1152
7.424263954162598	906
7.42921257019043	861
7.434030532836914	813
7.439098596572876	824
7.4440083503723145	795
7.448845624923706	764
7.453759431838989	1248
7.45869517326355	2302
7.463668584823608	2773
7.468644618988037	2049
7.473787307739258	1570
7.478856801986694	1709
7.483914613723755	1724
7.488926649093628	1647
7.493896007537842	1690
7.498965263366699	1629
7.503854751586914	1548
7.5088770389556885	1666
7.5138115882873535	1686
7.518784523010254	1536
7.523807048797607	1576
7.5288472175598145	1682
7.533936023712158	1568
7.539093255996704	1517
7.5440990924835205	1638
7.549121856689453	1596
7.554118394851685	1488
7.55908465385437	1586
7.564104795455933	1614
7.5691916942596436	1473
7.574282169342041	1516
7.579291582107544	1601
7.5842604637146	1481
7.589277505874634	1443
7.594192981719971	1563
7.599217891693115	1498
7.604133129119873	1387
7.609144449234009	1477
7.6141197681427	1493
7.619112014770508	1347
7.62407922744751	1377
7.629007816314697	1459
7.633992433547974	1324
7.639026403427124	1270
7.644041538238525	1379
7.649052858352661	1326
7.654077053070068	1212
7.659037828445435	1316
7.66402006149292	1341
7.6689324378967285	1203
7.6740124225616455	1267
7.678988695144653	1371
7.68399453163147	1263
7.689016580581665	1242
7.693908214569092	1403
7.698932409286499	1397
7.703966856002808	1335
7.708910703659058	1499
7.7139198780059814	1588
7.71899151802063	1502
7.723954200744629	1589
7.729059457778931	1730
7.734053134918213	1644
7.739147186279297	1643
7.744121789932251	1792
7.749037504196167	1764
7.7540812492370605	1671
7.759042024612427	1793
7.764042615890503	1830
7.769063711166382	1693
7.774095773696899	1750
7.7790367603302	1846
7.784142017364502	1731
7.789148330688477	1707
7.794126749038696	1834
7.79910945892334	1767
7.804095506668091	1663
7.80917501449585	1780
7.814077138900757	1800
7.819073677062988	1653
7.824049234390259	1705
7.829171419143677	1805
7.834172010421753	1677
7.839249134063721	1651
7.844264507293701	1776
7.849260091781616	1706
7.8542399406433105	1614
7.8592424392700195	1734
7.864192008972168	1753
7.869215726852417	1616
7.8742592334747314	1678
7.8792033195495605	1766
7.884253263473511	1641
7.889330863952637	1628
7.894274950027466	1761
7.899451017379761	1689
7.904480457305908	1603
7.909525632858276	1729
7.914530038833618	1749
7.919534683227539	1612
7.924448013305664	1673
7.929444789886475	1766
7.934398889541626	1650
7.939466714859009	1628
7.9445037841796875	1755
7.949527740478516	1700
7.954588413238525	1605
7.959522485733032	1720
7.964527368545532	1744
7.969515800476074	1607
7.97458553314209	1669
7.979633808135986	1761
7.984650135040283	1638
7.989618301391602	1618
7.9946815967559814	1749
7.999675512313843	1684
8.004690647125244	1588
8.009804010391235	1706
8.014738321304321	1731
8.01970624923706	1596
8.024803400039673	1661
8.029745817184448	1747
8.034729242324829	1626
8.03976321220398	1609
8.044776916503906	1730
8.049745798110962	1672
8.054694652557373	1573
8.059615135192871	1689
8.06462836265564	1710
8.069662809371948	1561
8.074691772460938	1610
8.079715490341187	1698
8.08467984199524	1573
8.089742183685303	1542
8.094692945480347	1654
8.099781513214111	1586
8.104696035385132	1523
8.109739780426025	1674
8.11476445198059	1693
8.119712114334106	1534
8.124643087387085	1582
8.129671812057495	1688
8.134638547897339	1578
8.139673948287964	1561
8.144654989242554	1690
8.149738788604736	1640
8.154577493667603	1548
8.159533500671387	1663
8.164489030838013	1688
8.169486045837402	1549
8.174517631530762	1607
8.179536819458008	1709
8.184569120407104	1592
8.189695835113525	1559
8.194523096084595	1691
8.199563026428223	1637
8.204602003097534	1487
8.209608316421509	1377
8.21455717086792	1092
8.219584226608276	673
8.224472284317017	696
8.229339599609375	959
8.234228134155273	846
8.239229202270508	660
8.244098424911499	1038
8.249180555343628	1733
8.254141330718994	2401
8.25912070274353	2420
8.264171600341797	1865
8.269081115722656	1465
8.27415919303894	1572
8.279106616973877	1745
8.284111738204956	1611
8.289142370223999	1502
8.29422402381897	1634
8.299230575561523	1626
8.304218292236328	1497
8.309258699417114	1576
8.314302444458008	1630
8.319257259368896	1495
8.324246883392334	1518
8.329247236251831	1629
8.33421277999878	1522
8.339268922805786	1464
8.344309329986572	1588
8.349255323410034	1558
8.354269027709961	1431
8.359243392944336	1517
8.364167928695679	1567
8.369268655776978	1422
8.374334812164307	1448
8.379329919815063	1556
8.384337186813354	1444
8.38934850692749	1379
8.39439845085144	1496
8.399336338043213	1449
8.404366493225098	1316
8.40935230255127	1405
8.414447784423828	1443
8.419382333755493	1283
8.424375772476196	1295
8.429374933242798	1397
8.434405088424683	1276
8.439462661743164	1201
8.44442892074585	1317
8.44950008392334	1281
8.45457911491394	1164
8.459521770477295	1268
8.464522123336792	1318
8.469542503356934	1184
8.474609375	1242
8.479602575302124	1370
8.484699249267578	1283
8.489695072174072	1282
8.49462103843689	1464
8.499583005905151	1479
8.504577398300171	1417
8.5095796585083	1569
8.514578819274902	1664
8.519574880599976	1563
8.524618148803711	1640
8.529569864273071	1782
8.534554481506348	1692
8.539610862731934	1649
8.544578552246094	1795
8.549624681472778	1774
8.554598093032837	1659
8.559597969055176	1765
8.564620018005371	1819
8.569570064544678	1679
8.57460641860962	1715
8.579649925231934	1837
8.584662199020386	1723
8.589775562286377	1663
8.594624280929565	1794
8.599684000015259	1761
8.604681968688965	1633
8.609710216522217	1733
8.614822149276733	1788
8.619813442230225	1644
8.62473464012146	1674
8.629799604415894	1790
8.63475251197815	1682
8.63978886604309	1626
8.644891023635864	1761
8.649901151657104	1728
8.654884099960327	1610
8.659823894500732	1709
8.664881229400635	1760
8.66990351676941	1620
8.674913167953491	1657
8.679789304733276	1769
8.684813499450684	1663
8.689874172210693	1609
8.694838762283325	1742
8.699936628341675	1709
8.705014944076538	1595
8.709944248199463	1702
8.715017080307007	1756
8.71997880935669	1614
8.724934816360474	1651
8.729942798614502	1769
8.734924793243408	1664
8.740017890930176	1617
8.744986057281494	1753
8.75003981590271	1716
8.755072116851807	1603
8.75992727279663	1708
8.764999389648438	1756
8.769945859909058	1614
8.774977207183838	1655
8.780027151107788	1768
8.785072088241577	1658
8.790044069290161	1610
8.794939041137695	1744
8.799973249435425	1707
8.804993629455566	1592
8.809992551803589	1698
8.815011262893677	1749
8.820122241973877	1607
8.825150728225708	1656
8.830063104629517	1761
8.835031270980835	1644
8.8401358127594	1609
8.845200777053833	1737
8.850123882293701	1691
8.855249404907227	1579
8.86009430885315	1690
8.865082740783691	1726
8.870107889175415	1589
8.87512731552124	1634
8.880099058151245	1735
8.885129690170288	1622
8.890147686004639	1589
8.895063638687134	1717
8.900079250335693	1671
8.905115365982056	1571
8.910124063491821	1672
8.915145635604858	1701
8.920125007629395	1560
8.925045251846313	1599
8.929937601089478	1686
8.934909343719482	1574
8.939937114715576	1522
8.944936990737915	1638
8.949971914291382	1611
8.954975128173828	1547
8.959948539733887	1671
8.964956521987915	1695
8.96986436843872	1542
8.97484827041626	1575
8.979806661605835	1701
8.98482632637024	1609
8.989809513092041	1564
8.994745969772339	1694
8.999758243560791	1667
9.004818439483643	1556
9.009754657745361	1655
9.014780521392822	1705
9.019762754440308	1573
9.024723529815674	1601
9.029696702957153	1707
9.034640073776245	1617
9.039695501327515	1569
9.04466724395752	1696
9.049734830856323	1665
9.0546555519104	1411
9.059605360031128	1212
9.064570426940918	938
9.06951379776001	637
9.074457168579102	717
9.079337120056152	885
9.084188222885132	656
9.08912444114685	645
9.093936443328857	1350
9.098942279815674	2260
9.103908061981201	2524
9.109056234359741	2087
9.114125490188599	1685
9.11911129951477	1544
9.12398886680603	1632
9.129035711288452	1746
9.134012937545776	1623
9.139083862304688	1528
9.144095659255981	1662
9.149170398712158	1667
9.154152154922485	1521
9.159213304519653	1590
9.164190530776978	1657
9.169253826141357	1527
9.174447059631348	1536
9.179463624954224	1644
9.184514045715332	1553
9.189504146575928	1474
9.194421529769897	1588
9.199424505233765	1577
9.204476833343506	1451
9.20948576927185	1528
9.214555978775024	1590
9.219620704650879	1448
9.224503993988037	1450
9.229493379592896	1561
9.234466552734375	1465
9.239463567733765	1385
9.244439363479614	1491
9.249483108520508	1474
9.254478216171265	1329
9.259418964385986	1394
9.264283657073975	1453
9.269301652908325	1310
9.27436876296997	1292
9.279401540756226	1397
9.28442668914795	1298
9.289402484893799	1207
9.29434871673584	1325
9.299339294433594	1328
9.304336547851562	1199
9.30938458442688	1286
9.314428806304932	1376
9.319540023803711	1250
9.32449984550476	1265
9.329468965530396	1407
9.334444284439087	1357
9.339582681655884	1322
9.344552040100098	1494
9.349525451660156	1539
9.354578495025635	1462
9.359598159790039	1596
9.364599227905273	1709
9.369625806808472	1608
9.374747037887573	1649
9.379770994186401	1789
9.38477635383606	1715
9.389837503433228	1667
9.394806385040283	1799
9.39975905418396	1789
9.404648542404175	1675
9.409780979156494	1766
9.414706468582153	1831
9.419615268707275	1697
9.424601078033447	1709
9.42956256866455	1822
9.434562921524048	1732
9.439609289169312	1661
9.444517135620117	1784
9.44961929321289	1769
9.454641103744507	1638
9.459601879119873	1722
9.464545488357544	1801
9.46947979927063	1668
9.474528074264526	1667
9.479482173919678	1782
9.484527349472046	1701
9.489600896835327	1627
9.494494199752808	1752
9.49953317642212	1745
9.504508018493652	1616
9.509528160095215	1697
9.514529943466187	1776
9.519530057907104	1643
9.524464845657349	1648
9.52942681312561	1769
9.534439086914062	1693
9.539592981338501	1623
9.544621467590332	1749
9.54966139793396	1745
9.554584503173828	1617
9.55962586402893	1703
9.564605951309204	1778
9.569578647613525	1644
9.574613332748413	1657
9.579622030258179	1782
9.584671258926392	1696
9.589679956436157	1624
9.594615936279297	1747
9.59962797164917	1740
9.60453987121582	1611
9.609563827514648	1699
9.614572525024414	1772
9.619559526443481	1641
9.624662637710571	1646
9.629639863967896	1769
9.634681224822998	1676
9.639688730239868	1605
9.644651889801025	1726
9.64977216720581	1718
9.654756546020508	1598
9.659771919250488	1688
9.664815187454224	1753
9.669824123382568	1619
9.674885034561157	1639
9.679935455322266	1756
9.6848783493042	1660
9.689854383468628	1596
9.694845914840698	1720
9.699854373931885	1704
9.704822540283203	1584
9.709840536117554	1673
9.714853763580322	1741
9.719842672348022	1609
9.724969863891602	1630
9.729919195175171	1745
9.734909296035767	1647
9.739979982376099	1584
9.745007514953613	1712
9.75003695487976	1686
9.755082607269287	1572
9.760115623474121	1670
9.765044689178467	1723
9.76998257637024	1590
9.77505874633789	1614
9.780068159103394	1728
9.785048961639404	1625
9.790099143981934	1564
9.795029878616333	1683
9.80007553100586	1651
9.805099725723267	1523
9.81029200553894	1618
9.815220355987549	1659
9.8201265335083	1510
9.82512903213501	1531
9.830158710479736	1669
9.835111856460571	1606
9.840116739273071	1547
9.845075368881226	1661
9.850013256072998	1631
9.85512113571167	1526
9.860087394714355	1635
9.865163087844849	1695
9.87017560005188	1564
9.875190019607544	1595
9.880166292190552	1710
9.885143280029297	1613
9.89030408859253	1558
9.895221948623657	1689
9.90030837059021	1653
9.90539288520813	1544
9.9103684425354	1650
9.915346384048462	1695
9.92039680480957	1560
9.925417423248291	1607
9.93047547340393	1670
9.935505151748657	1349
9.940590858459473	1009
9.94558072090149	853
9.950531721115112	728
9.95537519454956	663
9.960330724716187	650
9.965227842330933	581
9.9700345993042	807
9.975048542022705	1639
9.980027914047241	2608
9.98499608039856	2436
9.990017890930176	1729
9.995032787322998	1601
10.000049591064453	1680
10.005043983459473	1611
10.010096311569214	1651
10.01505732536316	1666
10.02009892463684	1531
10.025083303451538	1573
10.030064582824707	1687
10.035061120986938	1571
10.040050745010376	1505
10.045131921768188	1625
10.050306558609009	1592
10.055281639099121	1476
10.060245752334595	1575
10.06528902053833	1626
10.070287227630615	1481
10.075331211090088	1508
10.080349683761597	1615
10.085355997085571	1499
10.090312004089355	1440
10.095314264297485	1566
10.10027813911438	1530
10.105224132537842	1409
10.1103196144104	1502
10.115359544754028	1533
10.120318412780762	1382
10.125372886657715	1400
10.130341529846191	1501
10.135304689407349	1384
10.140325546264648	1308
10.145309448242188	1417
10.150280714035034	1370
10.15522837638855	1239
10.160223007202148	1329
10.165239572525024	1380
10.17022705078125	1229
10.175277948379517	1249
10.180312156677246	1358
10.185272693634033	1268
10.190252304077148	1221
10.195219993591309	1354
10.200234174728394	1337
10.205258846282959	1238
10.210333347320557	1358
10.215338706970215	1445
10.220302104949951	1353
10.225345849990845	1433
10.230223894119263	1594
10.235203981399536	1540
10.240262985229492	1523
10.245258808135986	1687
10.250255346298218	1703
10.255214214324951	1624
10.260143756866455	1737
10.265165328979492	1808
10.270206451416016	1687
10.275232791900635	1729
10.280261278152466	1845
10.28522515296936	1749
10.29022216796875	1698
10.295222997665405	1821
10.300233364105225	1795
10.305247068405151	1677
10.310292959213257	1778
10.315274953842163	1830
10.320228099822998	1691
10.325222492218018	1713
10.33022403717041	1826
10.335191249847412	1726
10.34025764465332	1671
10.34515380859375	1795
10.350228548049927	1773
10.355257034301758	1646
10.360113620758057	1737
10.365086793899536	1796
10.3700852394104	1659
10.375109195709229	1683
10.380112886428833	1801
10.385128736495972	1709
10.390206575393677	1646
10.395127296447754	1767
10.40007495880127	1745
10.405077934265137	1625
10.4101881980896	1722
10.415240287780762	1780
10.4201340675354	1649
10.425168991088867	1680
10.430176973342896	1795
10.435213804244995	1694
10.440284013748169	1636
10.445288181304932	1764
10.450395822525024	1746
10.455424547195435	1633
10.460435628890991	1720
10.465434312820435	1766
10.47039008140564	1640
10.475457906723022	1685
10.480479001998901	1777
10.485467195510864	1669
10.490452766418457	1631
10.495449542999268	1768
10.5004563331604	1731
10.505481958389282	1621
10.510435342788696	1717
10.515422105789185	1762
10.520507574081421	1626
10.525424242019653	1664
10.530435800552368	1765
10.53546690940857	1655
10.540471076965332	1619
10.545577049255371	1740
10.550541162490845	1699
10.555574178695679	1586
10.560603380203247	1691
10.565447092056274	1740
10.570455074310303	1605
10.575464725494385	1640
10.58048391342163	1733
10.585448741912842	1633
10.590428113937378	1596
10.595421314239502	1725
10.60048508644104	1684
10.605449676513672	1570
10.610398054122925	1669
10.615445137023926	1714
10.620457887649536	1578
10.625412225723267	1615
10.630383253097534	1717
10.635408639907837	1612
10.640506505966187	1563
10.645497560501099	1683
10.650477170944214	1633
10.655356645584106	1513
10.660400867462158	1603
10.66545820236206	1639
10.670538187026978	1501
10.675595998764038	1572
10.680614948272705	1704
10.685604810714722	1584
10.69057583808899	1517
10.695671319961548	1645
10.700687885284424	1617
10.705696105957031	1516
10.710704565048218	1623
10.715707063674927	1667
10.72066068649292	1530
10.725677251815796	1582
10.730671882629395	1693
10.735655546188354	1585
10.740750551223755	1543
10.74574589729309	1656
10.750707149505615	1614
10.755712509155273	1519
10.76071810722351	1628
10.765742063522339	1664
10.77068543434143	1527
10.77571702003479	1546
10.780708074569702	1460
10.785715579986572	1072
10.790727615356445	751
10.795592308044434	765
10.800480365753174	777
10.805336952209473	620
10.810229063034058	503
10.815120697021484	755
10.82000994682312	1410
10.824988603591919	2382
10.830061912536621	2596
10.835066080093384	1836
10.840155124664307	1413
10.845068216323853	1644
10.850095272064209	1724
10.855056285858154	1543
10.859992504119873	1557
10.864925622940063	1621
10.869975805282593	1502
10.875086545944214	1516
10.880049467086792	1618
10.884994268417358	1522
10.890107154846191	1453
10.895097494125366	1573
10.90002179145813	1550
10.905079364776611	1418
10.910180568695068	1504
10.915127277374268	1570
10.920074224472046	1422
10.925089359283447	1426
10.93020248413086	1542
10.935208082199097	1450
10.940167903900146	1380
10.945147275924683	1488
10.950161218643188	1463
10.955129623413086	1331
10.960124731063843	1410
10.965243339538574	1465
10.970081090927124	1319
10.975291728973389	1325
10.980194807052612	1426
10.985170841217041	1319
10.99019980430603	1238
10.995300054550171	1344
11.000255107879639	1308
11.005221366882324	1165
11.010260343551636	1236
11.015285015106201	1291
11.020210266113281	1153
11.025200843811035	1172
11.030198812484741	1284
11.035191774368286	1190
11.040277242660522	1128
11.04526686668396	1265
11.050265550613403	1274
11.055219173431396	1175
11.060246229171753	1289
11.065315008163452	1394
11.070256471633911	1309
11.075275182723999	1377
11.080281019210815	1543
11.085279703140259	1500
11.090381383895874	1482
11.095396995544434	1643
11.100412845611572	1648
11.105412244796753	1558
11.110458135604858	1675
11.115525007247925	1738
11.120501279830933	1608
11.12557601928711	1658
11.130673885345459	1780
11.13562798500061	1670
11.140648365020752	1623
11.145714282989502	1754
11.15075135231018	1713
11.15583872795105	1603
11.160786390304565	1707
11.16572093963623	1748
11.170709609985352	1610
11.175863265991211	1654
11.180915594100952	1751
11.185815811157227	1638
11.190829515457153	1602
11.195906639099121	1723
11.200883626937866	1666
11.205927610397339	1567
11.210930585861206	1682
11.215986967086792	1707
11.22101378440857	1570
11.226016998291016	1635
11.230971336364746	1727
11.236044645309448	1604
11.24119782447815	1575
11.246128559112549	1701
11.25110411643982	1650
11.256155252456665	1557
11.261128902435303	1673
11.26607632637024	1692
11.271231412887573	1560
11.276329040527344	1623
11.281358242034912	1708
11.286308765411377	1592
11.29129433631897	1587
11.296271562576294	1713
11.301243543624878	1647
11.306294918060303	1564
11.31135606765747	1682
11.316375255584717	1689
11.321288347244263	1553
11.326311588287354	1627
11.33130145072937	1717
11.33627700805664	1592
11.341319799423218	1580
11.346354722976685	1711
11.351330995559692	1651
11.356362104415894	1561
11.361277341842651	1668
11.366263628005981	1681
11.371253252029419	1553
11.376298189163208	1618
11.38126540184021	1709
11.386332750320435	1587
11.391277074813843	1574
11.396205425262451	1694
11.401227235794067	1622
11.40623950958252	1530
11.411259651184082	1641
11.41610336303711	1665
11.421084880828857	1533
11.426047086715698	1586
11.4310142993927	1684
11.436028957366943	1575
11.44102168083191	1554
11.44602632522583	1676
11.451025009155273	1611
11.456107139587402	1503
11.461155414581299	1621
11.466259479522705	1638
11.471202373504639	1496
11.476380586624146	1547
11.481409549713135	1624
11.486379861831665	1495
11.491379261016846	1501
11.496375322341919	1666
11.501408100128174	1601
11.506422519683838	1486
11.511353254318237	1586
11.516348123550415	1612
11.521368980407715	1498
11.526440382003784	1576
11.531378269195557	1664
11.536412477493286	1544
11.541473388671875	1537
11.546436309814453	1663
11.551508903503418	1587
11.556544065475464	1503
11.56147837638855	1625
11.56650972366333	1632
11.571450233459473	1504
11.576493263244629	1576
11.581547975540161	1660
11.586604356765747	1533
11.59161925315857	1529
11.596570491790771	1523
11.601527214050293	1173
11.606658697128296	781
11.611555099487305	775
11.616454124450684	867
11.621297359466553	746
11.626283407211304	591
11.630992650985718	717
11.63587760925293	1172
11.640984296798706	2042
11.645994663238525	2612
11.6510488986969	2045
11.656100988388062	1430
11.660995244979858	1545
11.665904760360718	1705
11.670952320098877	1558
11.676006317138672	1542
11.680984020233154	1631
11.686046600341797	1536
11.691055297851562	1513
11.696089744567871	1628
11.701070070266724	1558
11.706028938293457	1453
11.71104621887207	1570
11.716050863265991	1601
11.721060752868652	1453
11.726007461547852	1493
11.730934619903564	1592
11.735959768295288	1476
11.741017580032349	1440
11.745959520339966	1566
11.750935554504395	1509
11.75590443611145	1394
11.760882139205933	1492
11.765864372253418	1525
11.770918369293213	1377
11.775966882705688	1413
11.78096604347229	1504
11.785940647125244	1378
11.790969610214233	1328
11.795954704284668	1447
11.800941228866577	1379
11.805927038192749	1256
11.810982465744019	1350
11.815974712371826	1370
11.82088327407837	1212
11.825858116149902	1237
11.830899953842163	1330
11.835872650146484	1217
11.840924739837646	1172
11.845983982086182	1293
11.851016283035278	1247
11.856045246124268	1146
11.860935688018799	1266
11.86600136756897	1315
11.870998620986938	1195
11.876047372817993	1279
11.880977153778076	1417
11.885983228683472	1361
11.89098072052002	1383
11.895939588546753	1568
11.900938272476196	1566
11.905957698822021	1502
11.910956859588623	1647
11.915936946868896	1715
11.92088270187378	1607
11.925857782363892	1678
11.930965423583984	1791
11.935992956161499	1683
11.94103741645813	1665
11.946000337600708	1798
11.951060056686401	1747
11.95602560043335	1646
11.960994005203247	1754
11.96602201461792	1787
11.971033573150635	1658
11.976015090942383	1712
11.981038093566895	1805
11.986013412475586	1688
11.990979671478271	1656
11.995960235595703	1780
12.001014232635498	1726
12.005999088287354	1626
12.01098895072937	1729
12.015926599502563	1761
12.02102017402649	1625
12.026058673858643	1674
12.031013011932373	1770
12.036015510559082	1661
12.040954828262329	1637
12.046062469482422	1759
12.051022291183472	1701
12.05594801902771	1607
12.060904264450073	1717
12.065848588943481	1749
12.07084584236145	1613
12.075912714004517	1662
12.08090353012085	1766
12.085901737213135	1660
12.090817213058472	1626
12.09580111503601	1750
12.100812673568726	1699
12.105818271636963	1600
12.110833644866943	1710
12.11583161354065	1749
12.12076187133789	1619
12.12579345703125	1673
12.130914688110352	1767
12.135942935943604	1652
12.140979051589966	1634
12.145915746688843	1754
12.150995969772339	1690
12.155946493148804	1615
12.160996198654175	1734
12.166182279586792	1738
12.171111106872559	1612
12.176053762435913	1684
12.181052923202515	1764
12.186091184616089	1644
12.191094636917114	1636
12.196094274520874	1752
12.201005220413208	1681
12.206007242202759	1607
12.210963487625122	1718
12.215980291366577	1725
12.22101879119873	1600
12.22602367401123	1674
12.231017112731934	1749
12.236201763153076	1623
12.241250038146973	1626
12.24623966217041	1745
12.251152038574219	1669
12.256120204925537	1594
12.261092901229858	1715
12.266048669815063	1717
12.271253108978271	1588
12.276251554489136	1661
12.28124189376831	1733
12.28620719909668	1613
12.291202783584595	1613
12.29619812965393	1729
12.301227331161499	1655
12.30621600151062	1585
12.311272144317627	1699
12.31626009941101	1694
12.321274757385254	1573
12.326228380203247	1657
12.331299304962158	1723
12.33627724647522	1588
12.341303586959839	1583
12.346331357955933	1691
12.351313829421997	1604
12.356316566467285	1529
12.361262798309326	1638
12.366334676742554	1623
12.371333837509155	1509
12.376459121704102	1637
12.381429672241211	1710
12.386451482772827	1563
12.391483545303345	1564
12.396459579467773	1676
12.40148115158081	1600
12.406493186950684	1551
12.411476373672485	1673
12.416465520858765	1664
12.421420812606812	1551
12.42643690109253	1642
12.431525945663452	1705
12.436509132385254	1574
12.441572189331055	1587
12.446590185165405	1708
12.45158052444458	1620
12.456546545028687	1557
12.461548089981079	1677
12.466617107391357	1672
12.471546649932861	1559
12.4765625	1554
12.481547117233276	1376
12.486494541168213	926
12.491396188735962	722
12.4963059425354	874
12.50118088722229	849
12.506108045578003	587
12.511002540588379	666
12.515885829925537	1124
12.520937204360962	1814
12.525891780853271	2545
12.530871629714966	2350
12.535841464996338	1626
12.5409095287323	1457
12.545964241027832	1713
12.551084041595459	1699
12.55604076385498	1560
12.561066627502441	1646
12.566070795059204	1679
12.571080446243286	1550
12.576148509979248	1606
12.581162452697754	1682
12.586105346679688	1557
12.59104609489441	1537
12.59607195854187	1660
12.60107970237732	1592
12.606067657470703	1489
12.611138105392456	1598
12.61618161201477	1619
12.621173858642578	1484
12.626140356063843	1531
12.631069421768188	1611
12.636021137237549	1495
12.641023874282837	1469
12.646000146865845	1581
12.650958061218262	1515
12.655907154083252	1408
12.66096043586731	1507
12.665924549102783	1527
12.670886516571045	1382
12.675990343093872	1410
12.68099856376648	1489
12.686015844345093	1360
12.690981388092041	1317
12.695913314819336	1424
12.700969934463501	1352
12.705906867980957	1237
12.710887432098389	1334
12.715963125228882	1364
12.720950841903687	1221
12.725937604904175	1259
12.730927467346191	1358
12.73595404624939	1255
12.740954875946045	1235
12.745800733566284	1371
12.750849962234497	1342
12.755908966064453	1268
12.760917901992798	1416
12.765915393829346	1507
12.770963907241821	1427
12.776112794876099	1532
12.781065225601196	1674
12.786036491394043	1608
12.791041851043701	1617
12.795995712280273	1770
12.800964117050171	1746
12.806036949157715	1667
12.811154842376709	1784
12.816258668899536	1815
12.821222066879272	1690
12.826284646987915	1761
12.831328868865967	1847
12.83635139465332	1725
12.841384649276733	1713
12.846405267715454	1832
12.851358413696289	1771
12.856353998184204	1676
12.861305952072144	1787
12.866292715072632	1807
12.871253728866577	1673
12.876293182373047	1735
12.881298780441284	1827
12.88622498512268	1706
12.891258478164673	1685
12.896226406097412	1806
12.901328563690186	1739
12.906373739242554	1653
12.911462783813477	1769
12.916447162628174	1783
12.921560525894165	1650
12.926591634750366	1718
12.931520462036133	1798
12.936517715454102	1675
12.94165563583374	1669
12.94663667678833	1791
12.951627969741821	1719
12.956682920455933	1644
12.961686134338379	1759
12.966663360595703	1762
12.971688270568848	1638
12.976747035980225	1719
12.981760740280151	1797
12.986772298812866	1675
12.991746425628662	1676
12.996774911880493	1794
13.00173044204712	1719
13.006784677505493	1652
13.011788129806519	1768
13.016838788986206	1760
13.02189564704895	1639
13.02685022354126	1726
13.031890869140625	1800
13.036860942840576	1668
13.041962146759033	1681
13.046927452087402	1799
13.05190110206604	1718
13.056983947753906	1650
13.061961889266968	1768
13.066946744918823	1751
13.071965456008911	1630
13.077080488204956	1722
13.082055807113647	1786
13.087030410766602	1660
13.092018604278564	1674
13.097047805786133	1782
13.10195803642273	1689
13.10702919960022	1629
13.111977577209473	1753
13.116994619369507	1737
13.121943950653076	1620
13.126925706863403	1707
13.131958246231079	1769
13.13687539100647	1639
13.141870021820068	1651
13.146907567977905	1765
13.151915550231934	1680
13.156835556030273	1616
13.161817073822021	1738
13.166851282119751	1723
13.171878576278687	1601
13.176899909973145	1684
13.181935548782349	1745
13.186976432800293	1612
13.191948652267456	1632
13.19697093963623	1754
13.201927185058594	1662
13.206981897354126	1600
13.211967706680298	1718
13.216963768005371	1703
13.22197437286377	1586
13.226899147033691	1675
13.23189640045166	1739
13.236855506896973	1608
13.241891145706177	1622
13.24686598777771	1719
13.251804828643799	1623
13.256757974624634	1556
13.261868715286255	1673
13.266839981079102	1655
13.271819353103638	1521
13.276872396469116	1588
13.281832456588745	1662
13.286977767944336	1573
13.291945695877075	1616
13.296941757202148	1717
13.301893711090088	1606
13.306842803955078	1539
13.311838865280151	1676
13.316861152648926	1675
13.321941614151001	1557
13.326867580413818	1647
13.33186388015747	1714
13.336843967437744	1586
13.341883659362793	1597
13.346920728683472	1716
13.351921081542969	1629
13.35690450668335	1557
13.361857652664185	1678
13.366839408874512	1672
13.371864318847656	1558
13.376914501190186	1652
13.381964206695557	1718
13.3870267868042	1485
13.392037868499756	1239
13.396957397460938	1028
13.401909112930298	737
13.406811237335205	691
13.411735534667969	857
13.416708946228027	707
13.421653509140015	583
13.426626205444336	1161
13.431436538696289	2102
13.436458826065063	2547
13.441485404968262	2145
13.44646167755127	1712
13.451455354690552	1558
13.456408023834229	1565
13.461387872695923	1702
13.466384410858154	1686
13.471372604370117	1526
13.476467609405518	1593
13.481480836868286	1694
13.486556053161621	1562
13.491609573364258	1534
13.496653318405151	1656
13.50164008140564	1583
13.506603717803955	1482
13.511581182479858	1598
13.516571044921875	1622
13.521567821502686	1483
13.526427984237671	1531
13.531374454498291	1627
13.536425113677979	1498
13.541511058807373	1457
13.546624898910522	1580
13.55164909362793	1516
13.556633234024048	1409
13.56155514717102	1509
13.566592931747437	1527
13.571542501449585	1382
13.576539278030396	1426
13.5814847946167	1515
13.5865318775177	1379
13.591526508331299	1329
13.596559524536133	1445
13.601557970046997	1373
13.606575965881348	1249
13.611590147018433	1340
13.616562604904175	1358
13.621474504470825	1203
13.62644624710083	1244
13.631401062011719	1354
13.636378765106201	1239
13.641506671905518	1194
13.646442890167236	1327
13.651432991027832	1302
13.656398057937622	1208
13.66139006614685	1333
13.666409969329834	1401
13.671412467956543	1300
13.676501989364624	1408
13.681535959243774	1566
13.686467170715332	1506
13.691480159759521	1519
13.696426153182983	1691
13.701454401016235	1682
13.706540822982788	1612
13.711591958999634	1746
13.716654300689697	1794
13.721619367599487	1661
13.726603507995605	1725
13.731478929519653	1835
13.736516237258911	1723
13.741671800613403	1689
13.746594429016113	1816
13.751585721969604	1770
13.7565336227417	1673
13.761490106582642	1772
13.766517877578735	1804
13.771435022354126	1667
13.776468515396118	1713
13.781460285186768	1809
13.786406993865967	1701
13.79142165184021	1662
13.796443939208984	1784
13.801454305648804	1735
13.806485652923584	1635
13.811515808105469	1742
13.816517114639282	1771
13.8215172290802	1632
13.826454877853394	1677
13.831376075744629	1780
13.83642029762268	1669
13.841471672058105	1634
13.846494674682617	1753
13.85148811340332	1707
13.856490850448608	1611
13.861483097076416	1722
13.866613626480103	1755
13.871660232543945	1615
13.876666784286499	1679
13.881559133529663	1776
13.886603355407715	1665
13.891645431518555	1642
13.896733283996582	1768
13.901800155639648	1703
13.906852722167969	1619
13.91180968284607	1736
13.916887521743774	1750
13.92200255393982	1617
13.92691969871521	1698
13.93195629119873	1785
13.936971426010132	1654
13.941993236541748	1649
13.94701361656189	1778
13.952021598815918	1697
13.957029104232788	1613
13.962021350860596	1734
13.967058181762695	1747
13.9720778465271	1618
13.977052927017212	1689
13.982056617736816	1766
13.987025260925293	1641
13.991994380950928	1634
13.996999025344849	1757
14.00208067893982	1680
14.007063865661621	1600
14.012055158615112	1718
14.017160177230835	1724
14.022052764892578	1593
14.027094602584839	1668
14.032134056091309	1746
14.03713583946228	1621
14.042166948318481	1624
14.047223567962646	1743
14.052228212356567	1657
14.057201147079468	1578
14.062204122543335	1702
14.067212104797363	1707
14.072188138961792	1577
14.077279090881348	1656
14.082294464111328	1737
14.087291479110718	1602
14.092324256896973	1600
14.097204446792603	1723
14.102227687835693	1642
14.107324361801147	1572
14.112387657165527	1698
14.117366790771484	1693
14.12233567237854	1564
14.127378463745117	1637
14.13236379623413	1695
14.13735055923462	1561
14.142300128936768	1563
14.147290468215942	1682
14.152448654174805	1588
14.157443284988403	1501
14.162461519241333	1624
14.167512655258179	1648
14.172564029693604	1554
14.177540302276611	1635
14.182473182678223	1685
14.187469959259033	1549
14.192527770996094	1576
14.1974515914917	1711
14.202505111694336	1630
14.207592964172363	1567
14.212545394897461	1694
14.217543601989746	1684
14.222599506378174	1559
14.227599382400513	1642
14.232564687728882	1706
14.237492799758911	1578
14.242543697357178	1592
14.247532367706299	1712
14.25246262550354	1626
14.25748348236084	1549
14.262456893920898	1677
14.267433166503906	1651
14.272375583648682	1337
14.277413845062256	1118
14.282471418380737	895
14.287355661392212	654
14.292299509048462	687
14.297069787979126	734
14.30199384689331	514
14.307020425796509	731
14.311892986297607	1653
14.316895723342896	2570
14.321815729141235	2415
14.326891660690308	1830
14.331772089004517	1630
14.336750745773315	1608
14.34178113937378	1643
14.346809148788452	1717
14.351910591125488	1617
14.356903076171875	1528
14.361881732940674	1654
14.366941452026367	1669
14.371874809265137	1515
14.376911163330078	1566
14.381887435913086	1660
14.386860370635986	1539
14.391901969909668	1511
14.396919965744019	1632
14.401941537857056	1566
14.40693211555481	1470
14.411943197250366	1581
14.41693902015686	1591
14.421964406967163	1446
14.426955223083496	1505
14.431955099105835	1589
14.436917304992676	1458
14.441924333572388	1428
14.4470055103302	1547
14.451987743377686	1479
14.457035064697266	1374
14.46201229095459	1474
14.467035055160522	1478
14.472001791000366	1327
14.476938486099243	1369
14.481989622116089	1445
14.486955881118774	1312
14.49196195602417	1269
14.496893167495728	1381
14.501935958862305	1306
14.507034301757812	1203
14.51197338104248	1308
14.517001628875732	1323
14.522010326385498	1191
14.526948928833008	1258
14.531959295272827	1362
14.536941289901733	1258
14.541888952255249	1247
14.546873569488525	1405
14.55190658569336	1387
14.556928396224976	1338
14.561962604522705	1500
14.566919565200806	1581
14.571832656860352	1499
14.576923847198486	1602
14.581943035125732	1742
14.58695101737976	1647
14.591955184936523	1647
14.597052574157715	1801
14.602005958557129	1765
14.607021570205688	1680
14.612014532089233	1794
14.616992712020874	1823
14.621954917907715	1695
14.627026081085205	1759
14.632057666778564	1849
14.637045621871948	1731
14.642140626907349	1719
14.64713454246521	1839
14.652108192443848	1768
14.657102823257446	1670
14.662213802337646	1785
14.667238712310791	1803
14.672218799591064	1673
14.677141189575195	1736
14.68213701248169	1817
14.68712854385376	1680
14.692212104797363	1668
14.697209358215332	1796
14.702213764190674	1725
14.707263946533203	1636
14.712310552597046	1749
14.717377662658691	1763
14.722407102584839	1637
14.72737169265747	1704
14.732300281524658	1783
14.737256526947021	1664
14.74234914779663	1659
14.747323036193848	1777
14.752322912216187	1706
14.757348775863647	1624
14.76237964630127	1743
14.767353296279907	1750
14.772355318069458	1627
14.777371168136597	1705
14.782360553741455	1785
14.787400960922241	1654
14.79237675666809	1653
14.79740309715271	1784
14.802448987960815	1707
14.807456493377686	1626
14.81246042251587	1751
14.817508935928345	1756
14.822461128234863	1630
14.82742953300476	1705
14.832466840744019	1780
14.837456703186035	1651
14.84252643585205	1657
14.847660779953003	1779
14.852630376815796	1695
14.857617855072021	1620
14.862608909606934	1750
14.86759901046753	1751
14.87259316444397	1621
14.877608060836792	1701
14.882705926895142	1769
14.887729406356812	1639
14.892774820327759	1652
14.897852659225464	1765
14.902832508087158	1679
14.907923936843872	1621
14.912918329238892	1742
14.917943716049194	1715
14.92305588722229	1594
14.928071737289429	1692
14.933009147644043	1751
14.937920331954956	1618
14.942970514297485	1646
14.94788670539856	1751
14.95288372039795	1650
14.95785641670227	1586
14.962827205657959	1703
14.967808961868286	1675
14.972872734069824	1543
14.977834224700928	1625
14.982840061187744	1684
14.987857580184937	1563
14.992858171463013	1618
14.997804641723633	1746
15.002825736999512	1630
15.007902383804321	1550
15.012921333312988	1681
15.018005132675171	1678
15.023025751113892	1568
15.027998447418213	1663
15.033011436462402	1726
15.03808069229126	1598
15.04302167892456	1628
15.047960996627808	1739
15.0529944896698	1640
15.058053255081177	1584
15.062965869903564	1707
15.06801724433899	1687
15.073087453842163	1575
15.078192710876465	1664
15.083202362060547	1712
15.088183879852295	1586
15.093154191970825	1528
15.098073720932007	1384
15.10312819480896	969
15.108065605163574	716
15.112952947616577	857
15.117913007736206	916
15.122724056243896	633
15.127610445022583	626
15.132436990737915	1169
15.137385129928589	1925
15.142541646957397	2576
15.147504806518555	2338
15.152469873428345	1665
15.157517910003662	1468
15.162521362304688	1715
15.167484521865845	1748
15.172495603561401	1560
15.17758822441101	1607
15.182622194290161	1694
15.18758249282837	1568
15.192623138427734	1557
15.19765853881836	1675
15.202656269073486	1586
15.207813024520874	1507
15.212877988815308	1623
15.217854499816895	1607
15.22285771369934	1483
15.227856874465942	1561
15.232812404632568	1618
15.23778772354126	1481
15.242722034454346	1488
15.247756958007812	1602
15.252673387527466	1510
15.257697105407715	1433
15.262655973434448	1549
15.267677783966064	1528
15.272665977478027	1391
15.277710914611816	1457
15.282673597335815	1517
15.287651538848877	1374
15.2926607131958	1366
15.297667503356934	1473
15.30265736579895	1371
15.307818412780762	1273
15.312785625457764	1374
15.317952394485474	1340
15.323026180267334	1199
15.327860832214355	1272
15.332844972610474	1330
15.337907552719116	1187
15.342854022979736	1196
15.347801923751831	1317
15.352831363677979	1235
15.357837200164795	1174
15.362833976745605	1318
15.367814540863037	1336
15.372817993164062	1245
15.377838611602783	1379
15.382903575897217	1506
15.387844324111938	1433
15.39287781715393	1502
15.397794485092163	1668
15.40275764465332	1622
15.407841444015503	1595
15.413037061691284	1754
15.418107032775879	1755
15.423150300979614	1654
15.428200483322144	1759
15.433038473129272	1827
15.438088655471802	1701
15.443185091018677	1731
15.44814944267273	1847
15.453067064285278	1754
15.45799446105957	1701
15.462976932525635	1824
15.468006610870361	1801
15.47300934791565	1672
15.478024959564209	1760
15.48309326171875	1821
15.488129377365112	1682
15.493216514587402	1704
15.498228311538696	1812
15.503212213516235	1711
15.508321285247803	1657
15.513288974761963	1782
15.518216133117676	1754
15.523281335830688	1635
15.528238534927368	1732
15.533280611038208	1782
15.538336515426636	1646
15.543323040008545	1675
15.548326015472412	1789
15.553282976150513	1691
15.558337211608887	1635
15.56336498260498	1758
15.568323135375977	1728
15.573431968688965	1621
15.578556060791016	1718
15.583633661270142	1760
15.588678121566772	1619
15.59371280670166	1668
15.59860610961914	1774
15.603626728057861	1669
15.608619928359985	1629
15.613626956939697	1750
15.61860966682434	1709
15.623641967773438	1608
15.628628969192505	1714
15.633615016937256	1751
15.638649225234985	1620
15.643678665161133	1671
15.648672103881836	1767
15.653713464736938	1651
15.658758163452148	1624
15.663710117340088	1757
15.668675661087036	1709
15.67368221282959	1604
15.678770303726196	1713
15.683751106262207	1742
15.688759565353394	1599
15.693800926208496	1652
15.69884967803955	1753
15.703850746154785	1640
15.709002494812012	1620
15.7139732837677	1743
15.718984842300415	1683
15.723944664001465	1586
15.72885799407959	1699
15.733837842941284	1728
15.738868951797485	1592
15.74399733543396	1651
15.748966932296753	1744
15.753863096237183	1630
15.75890326499939	1604
15.763804912567139	1734
15.76880431175232	1679
15.773888111114502	1575
15.779012203216553	1692
15.784034490585327	1717
15.788953304290771	1579
15.793919324874878	1641
15.798932075500488	1733
15.80398941040039	1610
15.80902361869812	1591
15.814005136489868	1716
15.819078922271729	1655
15.82420825958252	1569
15.829203605651855	1683
15.834145545959473	1689
15.839118480682373	1547
15.844096422195435	1604
15.849062204360962	1688
15.854140996932983	1566
15.858982563018799	1544
15.863975763320923	1657
15.868917465209961	1586
15.873963594436646	1514
15.879073143005371	1668
15.884095191955566	1693
15.889133930206299	1536
15.894248008728027	1587
15.8992760181427	1685
15.904279470443726	1577
15.909305095672607	1574
15.91429352760315	1694
15.919399499893188	1628
15.924296855926514	1547
15.929230213165283	1661
15.93422794342041	1673
15.939229726791382	1547
15.944271564483643	1618
15.9492666721344	1698
15.954219102859497	1571
15.959141969680786	1562
15.964077234268188	1692
15.96904706954956	1638
15.974060773849487	1543
15.978965520858765	1529
15.983994007110596	1290
15.989007711410522	828
15.993782043457031	700
15.998656988143921	873
16.003544807434082	818
16.008505821228027	591
16.013407230377197	750
16.01836848258972	1246
16.02337121963501	1965
16.02826452255249	2579
16.033223390579224	2247
16.038224697113037	1557
16.04318857192993	1488
16.048267602920532	1712
16.053137063980103	1646
16.058204412460327	1535
16.063223838806152	1644
16.068078994750977	1636
16.07312774658203	1510
16.078057289123535	1588
16.08307695388794	1648
16.088006019592285	1508
16.092999696731567	1517
16.097965955734253	1635
16.1029531955719	1545
16.108057260513306	1465
16.113067865371704	1586
16.11809539794922	1573
16.12303328514099	1442
16.128003358840942	1520
16.133044004440308	1588
16.13804602622986	1442
16.143100023269653	1448
16.148102521896362	1561
16.153160095214844	1463
16.15814709663391	1383
16.16300392150879	1496
16.167953729629517	1476
16.17307758331299	1333
16.178014278411865	1401
16.183030605316162	1459
16.188034296035767	1300
16.19291377067566	1283
16.197882890701294	1388
16.20280432701111	1290
16.20785641670227	1193
16.212857723236084	1301
16.217877864837646	1300
16.222813606262207	1160
16.22778081893921	1228
16.23272132873535	1316
16.237683296203613	1195
16.24280619621277	1196
16.247870922088623	1338
16.252927780151367	1294
16.257999897003174	1241
16.262914896011353	1408
16.267827033996582	1464
16.272881746292114	1393
16.2778537273407	1526
16.282893657684326	1657
16.28795051574707	1571
16.29286551475525	1606
16.297836303710938	1760
16.302812099456787	1709
16.30798077583313	1642
16.312975883483887	1771
16.318000555038452	1782
16.322941541671753	1660
16.327939748764038	1746
16.33292269706726	1825
16.337823629379272	1698
16.34286141395569	1691
16.347877979278564	1819
16.35282015800476	1745
16.35781216621399	1661
16.362715482711792	1778
16.367784023284912	1780
16.372841119766235	1639
16.377846479415894	1715
16.382853746414185	1796
16.38788604736328	1668
16.39287304878235	1662
16.397713899612427	1779
16.402762413024902	1707
16.40778136253357	1625
16.412796020507812	1741
16.41778063774109	1755
16.422839403152466	1624
16.427861213684082	1698
16.432921171188354	1772
16.437899351119995	1643
16.442926168441772	1651
16.44790291786194	1775
16.45286202430725	1696
16.457893133163452	1613
16.46296000480652	1732
16.46799325942993	1733
16.4729962348938	1606
16.477992296218872	1685
16.482945203781128	1769
16.48787760734558	1648
16.492881774902344	1647
16.497904539108276	1770
16.502808332443237	1696
16.50791358947754	1612
16.512861251831055	1737
16.517929792404175	1742
16.522958993911743	1613
16.527907848358154	1694
16.53284978866577	1777
16.537858963012695	1648
16.542940855026245	1645
16.54789113998413	1768
16.552918672561646	1685
16.55789041519165	1605
16.562835216522217	1719
16.56794047355652	1732
16.57290005683899	1598
16.577917337417603	1679
16.583059549331665	1764
16.588017463684082	1641
16.592987537384033	1633
16.59798812866211	1754
16.60301113128662	1674
16.608097791671753	1599
16.613145351409912	1722
16.618083953857422	1720
16.623168230056763	1591
16.628196954727173	1671
16.633169412612915	1743
16.63819980621338	1612
16.643301963806152	1626
16.648292303085327	1742
16.653372049331665	1650
16.658405542373657	1587
16.663315296173096	1708
16.66835308074951	1693
16.673436880111694	1575
16.678527355194092	1669
16.68352508544922	1727
16.688546895980835	1590
16.693745613098145	1619
16.69857430458069	1727
16.703593730926514	1628
16.708688020706177	1574
16.7137188911438	1700
16.718674182891846	1671
16.723663091659546	1555
16.728631019592285	1649
16.733686447143555	1696
16.738696336746216	1558
16.743778467178345	1591
16.74884009361267	1691
16.75389528274536	1576
16.75885033607483	1533
16.763736248016357	1652
16.76866364479065	1605
16.77373504638672	1485
16.778706550598145	1610
16.783725023269653	1697
16.78875708580017	1558
16.793808460235596	1573
16.798758029937744	1670
16.803817987442017	1575
16.808908462524414	1546
16.813873052597046	1681
16.81888771057129	1651
16.823898792266846	1538
16.828797101974487	1644
16.83371090888977	1698
16.838715076446533	1561
16.84378933906555	1590
16.848775386810303	1702
16.853705167770386	1601
16.858745574951172	1553
16.863780736923218	1682
16.868765592575073	1651
16.873806953430176	1544
16.878772258758545	1630
16.8837947845459	1521
16.888712167739868	1100
16.89371132850647	810
16.89872121810913	792
16.903610706329346	781
16.908459901809692	717
16.91336750984192	687
16.918306589126587	843
16.923322439193726	1335
16.92823600769043	2260
16.93324613571167	2632
16.938262939453125	1974
16.943248510360718	1525
16.9482684135437	1644
16.953179121017456	1654
16.95820426940918	1578
16.963125705718994	1656
16.968212842941284	1635
16.97324275970459	1514
16.978245735168457	1600
16.98331642150879	1661
16.9882915019989	1520
16.99325966835022	1527
16.998314142227173	1643
17.003289937973022	1551
17.008411169052124	1477
17.013442277908325	1592
17.018528699874878	1570
17.023545742034912	1444
17.0284526348114	1527
17.03349256515503	1583
17.03847360610962	1442
17.04345464706421	1454
17.04851531982422	1572
17.05347967147827	1470
17.058565139770508	1396
17.063480377197266	1506
17.068431615829468	1481
17.073514223098755	1338
17.078498125076294	1414
17.083467483520508	1472
17.08849334716797	1319
17.093546390533447	1318
17.09856915473938	1411
17.10362482070923	1293
17.108546495437622	1213
17.11365246772766	1328
17.118590116500854	1296
17.12356400489807	1167
17.12858247756958	1259
17.133608102798462	1325
17.138625860214233	1185
17.143646478652954	1213
17.14872169494629	1352
17.153685331344604	1273
17.158692121505737	1237
17.163633108139038	1399
17.16863179206848	1429
17.17365550994873	1373
17.17867374420166	1523
17.183664798736572	1630
17.188679933547974	1539
17.193683385849	1609
17.198678493499756	1756
17.20368981361389	1688
17.208775997161865	1652
17.213810920715332	1794
17.218777418136597	1778
17.223772764205933	1667
17.228715658187866	1769
17.233743906021118	1825
17.238836765289307	1691
17.243850469589233	1722
17.24881625175476	1833
17.2539803981781	1729
17.25895643234253	1674
17.263962030410767	1799
17.268962621688843	1763
17.27403450012207	1652
17.279042959213257	1753
17.28412938117981	1790
17.289069652557373	1652
17.29407286643982	1691
17.299046754837036	1792
17.304072618484497	1684
17.3090558052063	1643
17.314058780670166	1764
17.319068908691406	1729
17.324141025543213	1621
17.329071760177612	1720
17.334126710891724	1758
17.339215517044067	1623
17.344268798828125	1678
17.349311590194702	1773
17.354339838027954	1654
17.359323024749756	1629
17.364283800125122	1759
17.369311809539795	1708
17.37450385093689	1612
17.379559993743896	1724
17.384582996368408	1746
17.389575958251953	1612
17.394596576690674	1678
17.39959478378296	1769
17.40463662147522	1648
17.409743547439575	1638
17.41471838951111	1763
17.41976046562195	1692
17.424723625183105	1613
17.429752588272095	1734
17.434685707092285	1746
17.439629316329956	1610
17.44477915763855	1683
17.44987154006958	1768
17.454881191253662	1642
17.45985746383667	1633
17.464744806289673	1754
17.469756364822388	1685
17.474815607070923	1607
17.47981095314026	1723
17.48479175567627	1734
17.48981285095215	1602
17.49476385116577	1675
17.499706506729126	1759
17.504730224609375	1632
17.50974678993225	1623
17.514817237854004	1744
17.51971936225891	1672
17.524639129638672	1581
17.52961301803589	1703
17.534621953964233	1717
17.539666891098022	1583
17.54466414451599	1652
17.54966640472412	1742
17.554623126983643	1620
17.559639930725098	1602
17.56450867652893	1727
17.569504499435425	1667
17.574578046798706	1576
17.579570531845093	1694
17.58463454246521	1714
17.589661836624146	1580
17.594615936279297	1644
17.599628925323486	1727
17.604573726654053	1606
17.609581232070923	1589
17.61457371711731	1714
17.619536876678467	1647
17.62454056739807	1547
17.629531860351562	1650
17.634532690048218	1668
17.639582872390747	1531
17.644688844680786	1596
17.649622201919556	1675
17.65469217300415	1539
17.659717321395874	1528
17.664703607559204	1683
17.66969108581543	1644
17.67474055290222	1549
17.679774045944214	1646
17.684816360473633	1654
17.68976902961731	1533
17.69490075111389	1620
17.699913024902344	1700
17.70487928390503	1580
17.709929704666138	1580
17.71498465538025	1714
17.720054864883423	1636
17.725019931793213	1545
17.730025053024292	1668
17.73498845100403	1673
17.740055561065674	1541
17.745065689086914	1619
17.75016736984253	1697
17.755162477493286	1566
17.760199546813965	1575
17.765089750289917	1685
17.770122051239014	1428
17.775195121765137	1068
17.7802095413208	894
17.785078287124634	767
17.789923906326294	682
17.79490852355957	725
17.799789667129517	655
17.804689168930054	738
17.80957055091858	1423
17.814533472061157	2431
17.819552898406982	2562
17.824645519256592	1852
17.829678773880005	1597
17.834686040878296	1681
17.83975076675415	1610
17.844833612442017	1631
17.849913358688354	1668
17.85494351387024	1546
17.85981059074402	1551
17.864760160446167	1666
17.8697726726532	1590
17.874900102615356	1496
17.87988829612732	1604
17.884921550750732	1615
17.890049695968628	1476
17.895045042037964	1547
17.89996862411499	1629
17.90497612953186	1496
17.910035133361816	1486
17.915065050125122	1596
17.92009139060974	1511
17.925078868865967	1425
17.93000364303589	1538
17.93497371673584	1541
17.940109491348267	1400
17.945167303085327	1463
17.950186729431152	1525
17.955116748809814	1392
17.96021604537964	1380
17.96520471572876	1482
17.970228672027588	1387
17.97520399093628	1296
17.980306386947632	1402
17.985324144363403	1374
17.99045968055725	1225
17.99538278579712	1292
18.000386714935303	1351
18.005380630493164	1207
18.010381937026978	1209
18.01539707183838	1326
18.020386695861816	1244
18.02540135383606	1181
18.03036069869995	1309
18.03546404838562	1305
18.040590047836304	1204
18.04560160636902	1321
18.0506649017334	1428
18.055623769760132	1357
18.06062650680542	1435
18.065626621246338	1597
18.07066297531128	1547
18.075631618499756	1530
18.080825567245483	1709
18.08582830429077	1713
18.09082055091858	1628
18.095736265182495	1737
18.1007661819458	1798
18.10584568977356	1679
18.110743522644043	1717
18.11583113670349	1832
18.12085723876953	1740
18.125824213027954	1694
18.130727529525757	1823
18.13567566871643	1792
18.14064860343933	1673
18.145673036575317	1772
18.150725841522217	1828
18.155704975128174	1685
18.160680770874023	1707
18.16565489768982	1820
18.170613050460815	1719
18.175761699676514	1657
18.180733919143677	1785
18.185704708099365	1753
18.190703868865967	1633
18.19563937187195	1724
18.200740575790405	1779
18.205729961395264	1648
18.210708141326904	1678
18.215726137161255	1784
18.22068428993225	1680
18.22564721107483	1625
18.230560779571533	1750
18.235465049743652	1738
18.240591287612915	1618
18.245587825775146	1708
18.250765800476074	1765
18.255695104599	1630
18.260637521743774	1656
18.265634298324585	1769
18.27061676979065	1678
18.275691747665405	1619
18.280678510665894	1752
18.285616397857666	1737
18.29061245918274	1612
18.295580863952637	1701
18.30062508583069	1761
18.305663585662842	1627
18.310670614242554	1655
18.315699815750122	1770
18.320727586746216	1676
18.325679302215576	1623
18.33059072494507	1748
18.33557939529419	1728
18.34054946899414	1605
18.34565305709839	1697
18.35067582130432	1762
18.355693340301514	1631
18.360713958740234	1657
18.365755319595337	1763
18.370707511901855	1663
18.375832319259644	1611
18.380820989608765	1737
18.385818243026733	1715
18.39074420928955	1603
18.39566707611084	1692
18.400678634643555	1748
18.405623197555542	1617
18.41068124771118	1639
18.415701150894165	1751
18.420613765716553	1661
18.42567467689514	1606
18.430720329284668	1725
18.43567132949829	1689
18.440792560577393	1579
18.445786714553833	1680
18.450798749923706	1735
18.455737352371216	1594
18.46073269844055	1618
18.465757369995117	1724
18.470728158950806	1625
18.475757837295532	1569
18.4807288646698	1685
18.485727310180664	1656
18.490764141082764	1530
18.495688676834106	1608
18.50067949295044	1652
18.5057852268219	1536
18.51080560684204	1608
18.515816926956177	1721
18.52079486846924	1599
18.525836944580078	1534
18.53083848953247	1669
18.535802841186523	1656
18.54084348678589	1543
18.54583239555359	1642
18.550897121429443	1702
18.55592679977417	1571
18.56091070175171	1610
18.565953254699707	1719
18.57100248336792	1611
18.5760235786438	1561
18.581067085266113	1687
18.586032152175903	1653
18.591012477874756	1548
18.596060276031494	1651
18.601059913635254	1695
18.606093645095825	1553
18.61116933822632	1513
18.61624789237976	1370
18.621251344680786	953
18.62606167793274	684
18.630930185317993	815
18.635823249816895	907
18.64075803756714	705
18.64559245109558	682
18.65049123764038	1146
18.655544757843018	1843
18.660561084747314	2549
18.66564154624939	2386
18.670607328414917	1693
18.675662994384766	1473
18.680743932724	1714
18.68570828437805	1718
18.690697193145752	1538
18.695687294006348	1596
18.70072865486145	1667
18.7056987285614	1545
18.710777759552002	1560
18.7158305644989	1661
18.72075080871582	1566
18.725754499435425	1496
18.730711460113525	1614
18.735665321350098	1594
18.74066996574402	1466
18.745639085769653	1549
18.7505784034729	1610
18.755596160888672	1472
18.76057004928589	1474
18.765648365020752	1586
18.770588397979736	1495
18.77560806274414	1425
18.780673027038574	1538
18.785683155059814	1515
18.790640830993652	1379
18.795626163482666	1453
18.80063009262085	1514
18.8056902885437	1362
18.81074285507202	1359
18.81576180458069	1455
18.820761919021606	1343
18.825780391693115	1264
18.830764055252075	1366
18.835802793502808	1326
18.84083390235901	1192
18.845813512802124	1273
18.850918531417847	1319
18.85592818260193	1172
18.860814571380615	1188
18.865795135498047	1310
18.87085247039795	1220
18.87581157684326	1160
18.880820989608765	1305
18.88582158088684	1319
18.890792846679688	1238
18.89588952064514	1378
18.90085744857788	1488
18.905882120132446	1412
18.910869359970093	1488
18.915884017944336	1651
18.920936822891235	1596
18.92593812942505	1582
18.930978059768677	1745
18.935970783233643	1744
18.940958499908447	1642
18.945987701416016	1752
18.950945138931274	1812
18.955989837646484	1679
18.961040496826172	1718
18.966029405593872	1832
18.971012115478516	1734
18.976107120513916	1687
18.981130838394165	1813
18.98628067970276	1775
18.991281747817993	1663
18.99621081352234	1761
19.00122332572937	1806
19.006248474121094	1669
19.01127338409424	1704
19.016294717788696	1801
19.0213360786438	1695
19.026281356811523	1652
19.031254529953003	1769
19.036299467086792	1723
19.041428089141846	1625
19.046468257904053	1737
19.051551818847656	1763
19.056530714035034	1624
19.06160616874695	1682
19.06664228439331	1774
19.07166862487793	1648
19.0766921043396	1631
19.08167052268982	1757
19.086707830429077	1696
19.091692209243774	1605
19.096725463867188	1720
19.101669549942017	1743
19.106613159179688	1614
19.111632108688354	1673
19.116686820983887	1766
19.12161350250244	1642
19.1265869140625	1614
19.131423473358154	1745
19.136459350585938	1697
19.141510725021362	1594
19.14657759666443	1704
19.151545524597168	1734
19.156521797180176	1602
19.161513805389404	1658
19.16649055480957	1759
19.171510219573975	1647
19.17660117149353	1617
19.181602001190186	1737
19.186678409576416	1681
19.19156527519226	1584
19.196510314941406	1696
19.201459884643555	1729
19.2065532207489	1594
19.21158742904663	1642
19.216623544692993	1739
19.22159695625305	1621
19.22661805152893	1595
19.231592893600464	1720
19.23656392097473	1662
19.24157691001892	1568
19.246602773666382	1682
19.251691102981567	1708
19.256678819656372	1574
19.261613845825195	1627
19.266658544540405	1719
19.271580696105957	1602
19.27657151222229	1579
19.281473398208618	1706
19.286478757858276	1655
19.29147219657898	1554
19.29652428627014	1662
19.30152153968811	1688
19.306560754776	1553
19.311563730239868	1613
19.316648721694946	1705
19.32159662246704	1587
19.326590061187744	1560
19.33152413368225	1691
19.33651900291443	1640
19.34159278869629	1536
19.34658670425415	1637
19.351548671722412	1662
19.356475591659546	1519
19.361472606658936	1566
19.366469383239746	1662
19.371503829956055	1537
19.376580238342285	1490
19.381494760513306	1635
19.38649868965149	1630
19.391469955444336	1540
19.396438598632812	1628
19.40146827697754	1646
19.406543970108032	1512
19.41161870956421	1577
19.41666841506958	1682
19.42176365852356	1577
19.426652193069458	1552
19.431632041931152	1677
19.436652898788452	1626
19.44170069694519	1534
19.446657180786133	1642
19.451857089996338	1663
19.45696759223938	1527
19.461997747421265	1603
19.466955423355103	1696
19.471906185150146	1574
19.4768488407135	1558
19.481881856918335	1687
19.48700714111328	1540
19.491971015930176	1200
19.496917724609375	989
19.50185990333557	784
19.50683093070984	662
19.511719226837158	829
19.51662564277649	822
19.521462202072144	653
19.526410341262817	1025
19.531359672546387	1949
19.536338329315186	2576
19.54140853881836	2209
19.546483516693115	1707
19.551518201828003	1578
19.55651617050171	1527
19.561442375183105	1613
19.566405057907104	1679
19.571454286575317	1541
19.576534748077393	1511
19.58152961730957	1646
19.5864839553833	1596
19.591434478759766	1477
19.59636616706848	1579
19.6013400554657	1616
19.606356859207153	1475
19.611400842666626	1513
19.616403818130493	1613
19.621390342712402	1503
19.626370668411255	1454
19.631280183792114	1576
19.636236906051636	1532
19.64128279685974	1413
19.646292209625244	1504
19.651291131973267	1548
19.65631341934204	1401
19.661322116851807	1428
19.666283130645752	1524
19.671196699142456	1405
19.676305532455444	1339
19.68137836456299	1452
19.686362743377686	1401
19.69146156311035	1274
19.696289539337158	1358
19.70138430595398	1385
19.706454277038574	1225
19.71150231361389	1243
19.71649742126465	1329
19.721522092819214	1210
19.72649908065796	1164
19.731493711471558	1281
19.73647427558899	1239
19.74147343635559	1131
19.746500968933105	1245
19.751497983932495	1297
19.756447076797485	1176
19.76143741607666	1244
19.766523599624634	1390
19.77146315574646	1332
19.776501893997192	1348
19.781471729278564	1530
19.786428451538086	1544
19.79154062271118	1489
19.79654026031494	1644
19.801493883132935	1724
19.80660104751587	1619
19.81166386604309	1685
19.81662130355835	1794
19.821706771850586	1700
19.826652765274048	1675
19.831597089767456	1808
19.83674955368042	1764
19.841734886169434	1665
19.84688639640808	1779
19.851880311965942	1805
19.856863260269165	1672
19.86184287071228	1730
19.866833209991455	1822
19.871798515319824	1696
19.87683653831482	1671
19.881809949874878	1800
19.88683533668518	1739
19.891844987869263	1641
19.896889209747314	1756
19.901841640472412	1783
19.90689992904663	1648
19.911819458007812	1702
19.91687273979187	1788
19.92196774482727	1667
19.926871299743652	1653
19.931792736053467	1782
19.936867237091064	1721
19.941887140274048	1618
19.94693398475647	1731
19.951881408691406	1758
19.95694088935852	1625
19.96196699142456	1691
19.966948986053467	1777
19.971973180770874	1655
19.976999759674072	1643
19.982002019882202	1769
19.986984252929688	1704
19.99196195602417	1614
19.99692153930664	1732
20.00196623802185	1750
20.007026195526123	1609
20.01212501525879	1684
20.01709508895874	1768
20.022232055664062	1642
20.027265310287476	1648
20.032304286956787	1770
20.037262201309204	1691
20.042267560958862	1614
20.047290802001953	1742
20.052324533462524	1745
20.05731725692749	1614
20.062321662902832	1690
20.06735396385193	1770
20.072431564331055	1637
20.077561855316162	1641
20.082590579986572	1760
20.087573051452637	1678
20.09259533882141	1608
20.09753942489624	1726
20.102665424346924	1713
20.10770010948181	1590
20.1126229763031	1676
20.117621660232544	1743
20.122572422027588	1614
20.127569675445557	1633
20.1325466632843	1752
20.137554168701172	1666
20.142634391784668	1594
20.147600412368774	1714
20.152570962905884	1706
20.15756845474243	1584
20.162489891052246	1663
20.167529582977295	1735
20.172515392303467	1613
20.17753529548645	1620
20.182533740997314	1734
20.187581062316895	1648
20.192471742630005	1576
20.197473764419556	1697
20.202503204345703	1694
20.20751404762268	1572
20.212547779083252	1656
20.21758270263672	1721
20.222670793533325	1588
20.227611541748047	1599
20.232651710510254	1710
20.237687587738037	1611
20.24272632598877	1539
20.24768829345703	1660
20.252676963806152	1643
20.257702589035034	1503
20.262715816497803	1583
20.267695903778076	1672
20.272660493850708	1578
20.277628898620605	1593
20.282633304595947	1694
20.287687301635742	1585
20.29264807701111	1530
20.297614812850952	1676
20.30256986618042	1669
20.307659149169922	1546
20.312628746032715	1637
20.31762933731079	1709
20.32257580757141	1586
20.327596187591553	1594
20.332680702209473	1711
20.33760094642639	1622
20.342666149139404	1550
20.347609519958496	1672
20.352518558502197	1676
20.35755181312561	1554
20.36254382133484	1636
20.367550134658813	1705
20.3725905418396	1457
20.377655506134033	1199
20.38265109062195	990
20.38753604888916	729
20.392431259155273	714
20.397359132766724	905
20.40224003791809	765
20.407181978225708	671
20.412065029144287	1279
20.417067766189575	2205
20.422043323516846	2557
20.427011728286743	2108
20.432045698165894	1708
20.437068462371826	1575
20.442119121551514	1570
20.44711923599243	1692
20.45213770866394	1666
20.45724630355835	1516
20.462242126464844	1590
20.467256784439087	1678
20.472293376922607	1555
20.477293491363525	1531
20.482312440872192	1648
20.48735809326172	1572
20.492365837097168	1485
20.49736499786377	1594
20.502346992492676	1593
20.5074245929718	1460
20.512392282485962	1527
20.51739239692688	1611
20.52241826057434	1473
20.527341604232788	1458
20.532378435134888	1577
20.53733539581299	1501
20.54236388206482	1404
20.547459840774536	1514
20.552468061447144	1508
20.5574791431427	1361
20.56239676475525	1422
20.567415237426758	1489
20.572402000427246	1345
20.5774142742157	1323
20.582489252090454	1432
20.587483406066895	1334
20.59239363670349	1233
20.597398281097412	1340
20.602404356002808	1326
20.607404470443726	1178
20.612460374832153	1244
20.617440938949585	1327
20.622596740722656	1188
20.627633094787598	1189
20.632628917694092	1328
20.637547254562378	1267
20.642618656158447	1203
20.647706031799316	1352
20.652795791625977	1385
20.65776824951172	1318
20.662792444229126	1460
20.667781591415405	1582
20.672810554504395	1510
20.67782497406006	1576
20.68284296989441	1730
20.687825441360474	1670
20.692877292633057	1630
20.69782853126526	1776
20.70277166366577	1784
20.707778930664062	1677
20.712763786315918	1767
20.717761278152466	1838
20.722710132598877	1704
20.727777004241943	1726
20.732811450958252	1847
20.737834215164185	1756
20.74281907081604	1692
20.747830867767334	1818
20.75282573699951	1799
20.757805347442627	1673
20.762781620025635	1764
20.767784118652344	1824
20.772703647613525	1687
20.777742624282837	1697
20.78278422355652	1812
20.787784099578857	1720
20.792781829833984	1650
20.797789812088013	1772
20.80274987220764	1758
20.80783438682556	1643
20.81286859512329	1733
20.818002700805664	1791
20.823002815246582	1652
20.827967405319214	1674
20.833027839660645	1795
20.838001012802124	1707
20.84303069114685	1639
20.84807777404785	1755
20.85307288169861	1739
20.858020067214966	1632
20.863009452819824	1725
20.868064880371094	1776
20.8731210231781	1638
20.87816882133484	1672
20.883248567581177	1783
20.888228178024292	1687
20.893296480178833	1645
20.89830780029297	1771
20.903352975845337	1726
20.908437490463257	1619
20.913426637649536	1725
20.91838002204895	1768
20.92332410812378	1636
20.928303480148315	1675
20.933273315429688	1781
20.938287019729614	1678
20.943292140960693	1634
20.948253393173218	1760
20.953251361846924	1724
20.958224296569824	1611
20.963236570358276	1714
20.96825361251831	1766
20.97320532798767	1627
20.978256464004517	1654
20.983216524124146	1762
20.98827290534973	1664
20.9932804107666	1616
20.998218297958374	1740
21.003283262252808	1712
21.008294343948364	1598
21.013317584991455	1687
21.018292903900146	1748
21.023324489593506	1617
21.02825427055359	1643
21.0332989692688	1748
21.03828454017639	1646
21.043375492095947	1597
21.04839324951172	1725
21.053407192230225	1687
21.058433771133423	1564
21.063350915908813	1678
21.0683536529541	1726
21.0734224319458	1591
21.078426361083984	1621
21.08341145515442	1721
21.088468313217163	1624
21.09345269203186	1576
21.09839391708374	1693
21.1034095287323	1645
21.108521223068237	1534
21.113507986068726	1635
21.118469715118408	1668
21.123453378677368	1525
21.128520727157593	1560
21.13349938392639	1680
21.138553857803345	1609
21.143657445907593	1585
21.14863348007202	1686
21.153602361679077	1620
21.1585853099823	1530
21.163575172424316	1653
21.168601989746094	1696
21.17367911338806	1561
21.178640365600586	1616
21.183666706085205	1726
21.188621520996094	1618
21.193567037582397	1572
21.198604345321655	1699
21.203665733337402	1653
21.208654165267944	1559
21.213783502578735	1675
21.2188458442688	1705
21.223822355270386	1573
21.228726863861084	1627
21.23376178741455	1726
21.238792896270752	1505
21.24377703666687	1222
21.248722553253174	1052
21.25373673439026	782
21.25863027572632	673
21.26353096961975	830
21.268531799316406	747
21.273444414138794	615
21.278393507003784	1205
21.283486366271973	2203
21.28847360610962	2614
21.293441772460938	2143
21.298357248306274	1728
21.303388595581055	1622
21.30840539932251	1604
21.313397645950317	1700
21.318429708480835	1694
21.323445081710815	1540
21.32835364341736	1586
21.333409547805786	1696
21.338417530059814	1584
21.343412160873413	1532
21.348411321640015	1658
21.353327751159668	1619
21.35841202735901	1492
21.363376140594482	1581
21.368375062942505	1624
21.373435974121094	1487
21.378511428833008	1528
21.383607149124146	1630
21.388675928115845	1507
21.393678903579712	1466
21.398592710494995	1589
21.40367555618286	1531
21.408650636672974	1415
21.413721561431885	1507
21.418667554855347	1529
21.423693656921387	1386
21.428690195083618	1432
21.43368911743164	1521
21.438689470291138	1385
21.44376540184021	1325
21.44877052307129	1431
21.453704357147217	1366
21.45868229866028	1245
21.4637508392334	1336
21.468724489212036	1357
21.473828554153442	1217
21.478813886642456	1252
21.483863353729248	1349
21.48879599571228	1236
21.493796825408936	1200
21.498804330825806	1332
21.503833055496216	1295
21.5088951587677	1214
21.513853311538696	1350
21.518862009048462	1418
21.52388644218445	1342
21.528924703598022	1456
21.53391194343567	1604
21.538856983184814	1535
21.543978214263916	1559
21.549026250839233	1732
21.553969621658325	1710
21.559011220932007	1640
21.563998460769653	1770
21.568974494934082	1810
21.57406449317932	1685
21.579020261764526	1760
21.584169149398804	1858
21.58906626701355	1746
21.594001293182373	1722
21.59901261329651	1848
21.603944063186646	1790
21.60898447036743	1701
21.614055633544922	1812
21.619033098220825	1829
21.624020099639893	1689
21.628974676132202	1750
21.63396668434143	1834
21.638956308364868	1711
21.643935918807983	1686
21.64893102645874	1811
21.653928995132446	1750
21.658890962600708	1651
21.66384482383728	1761
21.668806314468384	1795
21.673818349838257	1660
21.678812503814697	1708
21.68387007713318	1804
21.68885087966919	1696
21.693872928619385	1671
21.698827981948853	1788
21.703799962997437	1736
21.708853483200073	1636
21.713785886764526	1739
21.7187716960907	1770
21.723745107650757	1636
21.728744506835938	1684
21.733765125274658	1790
21.7387273311615	1681
21.743816137313843	1643
21.748841285705566	1769
21.753800868988037	1725
21.758748292922974	1625
21.7638418674469	1728
21.768871068954468	1753
21.774060487747192	1624
21.779035091400146	1685
21.784026861190796	1776
21.7890727519989	1667
21.79406762123108	1648
21.798966884613037	1774
21.80397915840149	1717
21.809022188186646	1621
21.814040899276733	1726
21.8189857006073	1751
21.823973894119263	1623
21.828908443450928	1677
21.833866119384766	1771
21.838783740997314	1654
21.843844890594482	1619
21.848835468292236	1748
21.853814840316772	1696
21.858829021453857	1587
21.863886833190918	1697
21.868881940841675	1729
21.873973846435547	1596
21.879032135009766	1652
21.884039402008057	1748
21.889079332351685	1631
21.89432954788208	1605
21.899107456207275	1728
21.904080152511597	1667
21.90914011001587	1576
21.914191722869873	1679
21.919252395629883	1692
21.924241304397583	1554
21.929152011871338	1611
21.934134483337402	1697
21.939090251922607	1567
21.94411039352417	1534
21.949127674102783	1664
21.95409893989563	1632
21.959101915359497	1569
21.964069366455078	1667
21.9690420627594	1669
21.97423815727234	1531
21.979233264923096	1613
21.984230279922485	1711
21.989216089248657	1591
21.994211435317993	1579
21.999128818511963	1704
22.00411343574524	1646
22.00910782814026	1550
22.014174938201904	1664
22.01909041404724	1691
22.024068117141724	1563
22.029083013534546	1623
22.034114122390747	1712
22.039153814315796	1594
22.044208765029907	1573
22.049293279647827	1693
22.054312467575073	1624
22.05931520462036	1398
22.064215898513794	1245
22.069241762161255	962
22.074273109436035	680
22.07914638519287	788
22.084068298339844	922
22.088937044143677	639
22.09379553794861	677
22.098646879196167	1450
22.10366654396057	2317
22.108712673187256	2503
22.113796949386597	2020
22.118791341781616	1625
22.123789310455322	1513
22.128682136535645	1644
22.13366723060608	1721
22.138673782348633	1562
22.14376997947693	1517
22.148767232894897	1661
22.153791189193726	1623
22.15879774093628	1498
22.16363549232483	1588
22.168538331985474	1635
22.173502206802368	1498
22.1785409450531	1522
22.183513879776	1624
22.188657760620117	1515
22.193551540374756	1460
22.198505640029907	1572
22.203547477722168	1534
22.208505153656006	1423
22.213518619537354	1514
22.218448638916016	1565
22.2234787940979	1417
22.228492975234985	1432
22.233476638793945	1531
22.238497972488403	1428
22.243544578552246	1361
22.248501777648926	1473
22.25348711013794	1430
22.25846004486084	1292
22.263468980789185	1370
22.268380880355835	1408
22.273356437683105	1254
22.27843451499939	1256
22.283385038375854	1352
22.288410186767578	1243
22.293360710144043	1166
22.298296213150024	1274
22.30338191986084	1243
22.308557510375977	1122
22.31376624107361	1231
22.318628311157227	1296
22.323617696762085	1172
22.328641176223755	1218
22.333664894104004	1357
22.33866786956787	1304
22.343637466430664	1307
22.348590850830078	1489
22.35355281829834	1517
22.358521938323975	1456
22.36351990699768	1601
22.368497133255005	1696
22.373692274093628	1591
22.378750801086426	1655
22.383700609207153	1782
22.388670444488525	1694
22.393681526184082	1658
22.398701906204224	1788
22.40367889404297	1759
22.40884804725647	1658
22.413825273513794	1761
22.418801069259644	1797
22.423770904541016	1667
22.42879605293274	1711
22.433776140213013	1808
22.438822984695435	1701
22.443875789642334	1664
22.448867559432983	1784
22.453845739364624	1738
22.458894968032837	1633
22.46394157409668	1739
22.46894073486328	1772
22.473963499069214	1635
22.478992700576782	1676
22.483935356140137	1776
22.48894166946411	1665
22.493969917297363	1628
22.49891471862793	1752
22.50387954711914	1703
22.508928060531616	1592
22.513922929763794	1697
22.518903255462646	1742
22.523808002471924	1611
22.52874994277954	1651
22.53380513191223	1752
22.538862466812134	1641
22.5439236164093	1608
22.548888206481934	1742
22.553940057754517	1699
22.55895471572876	1593
22.563847541809082	1693
22.56887984275818	1736
22.573858499526978	1606
22.578842401504517	1649
22.58383297920227	1755
22.588873386383057	1647
22.59383225440979	1609
22.598743677139282	1735
22.603729009628296	1689
22.608778715133667	1581
22.613747119903564	1685
22.618773698806763	1741
22.623874187469482	1605
22.628920316696167	1645
22.63386607170105	1746
22.638915300369263	1634
22.64396572113037	1597
22.649002075195312	1723
22.653993844985962	1678
22.659091234207153	1573
22.66399621963501	1678
22.668981790542603	1715
22.674124717712402	1577
22.67912268638611	1632
22.684128284454346	1731
22.689141988754272	1619
22.694191694259644	1587
22.699174880981445	1717
22.704304933547974	1660
22.709285974502563	1562
22.714287519454956	1672
22.719220399856567	1694
22.724354028701782	1561
22.729421377182007	1625
22.73449182510376	1703
22.739386320114136	1584
22.74448323249817	1577
22.74950337409973	1698
22.754445552825928	1624
22.759451150894165	1532
22.764498710632324	1647
22.76950240135193	1652
22.7746000289917	1511
22.779631853103638	1581
22.78473210334778	1652
22.78972601890564	1509
22.794724941253662	1506
22.79983353614807	1648
22.80482816696167	1607
22.809809923171997	1537
22.8148136138916	1634
22.819777011871338	1619
22.82485604286194	1502
22.82987666130066	1604
22.834879875183105	1677
22.839887380599976	1549
22.844908714294434	1569
22.84993815422058	1695
22.85498356819153	1617
22.859848022460938	1533
22.86484384536743	1652
22.869778394699097	1651
22.8748517036438	1528
22.879832983016968	1616
22.884782791137695	1695
22.88972306251526	1564
22.894695043563843	1561
22.899861097335815	1688
22.904839992523193	1545
22.909910678863525	1236
22.914914846420288	1035
22.919999599456787	791
22.924922943115234	677
22.929794311523438	876
22.934804677963257	855
22.939690113067627	664
22.944650173187256	1084
22.949719429016113	1987
22.954845905303955	2564
22.95972967147827	2211
22.964630365371704	1731
22.969639778137207	1571
22.974725008010864	1527
22.979681730270386	1640
22.984625101089478	1692
22.98966121673584	1539
22.994632959365845	1534
22.99965810775757	1662
23.004761457443237	1578
23.00976824760437	1491
23.014785766601562	1605
23.019822597503662	1602
23.024773597717285	1472
23.02977967262268	1541
23.0347318649292	1613
23.039762496948242	1480
23.044814109802246	1473
23.049763917922974	1586
23.054837942123413	1498
23.059800386428833	1417
23.064772129058838	1529
23.069791555404663	1520
23.074851036071777	1383
23.079872846603394	1448
23.08490514755249	1515
23.089927673339844	1377
23.09504246711731	1370
23.100053071975708	1470
23.105108499526978	1364
23.11018443107605	1282
23.115254163742065	1388
23.120237827301025	1351
23.12523055076599	1211
23.130295515060425	1285
23.135306358337402	1328
23.14037251472473	1173
23.145368576049805	1183
23.15033507347107	1294
23.155380249023438	1201
23.160418272018433	1144
23.165437936782837	1281
23.170458793640137	1259
23.17550277709961	1168
23.180608987808228	1301
23.18556022644043	1392
23.190593957901	1307
23.195568561553955	1406
23.20061230659485	1572
23.20557165145874	1515
23.210615873336792	1515
23.215638637542725	1693
23.22058391571045	1701
23.22555184364319	1619
23.23057198524475	1733
23.235547065734863	1788
23.24060606956482	1661
23.24561858177185	1707
23.250632762908936	1820
23.255582571029663	1721
23.260602474212646	1681
23.265721321105957	1805
23.27068257331848	1761
23.27575993537903	1655
23.280778169631958	1765
23.285749912261963	1800
23.29077935218811	1653
23.295790433883667	1703
23.30078148841858	1807
23.305711269378662	1698
23.310728311538696	1661
23.315702199935913	1783
23.320630073547363	1743
23.325719118118286	1634
23.330719709396362	1733
23.335719347000122	1770
23.34072732925415	1637
23.345693349838257	1681
23.350709199905396	1786
23.35568118095398	1675
23.36069655418396	1631
23.365719318389893	1759
23.370707035064697	1715
23.37587594985962	1612
23.38083291053772	1719
23.38588809967041	1755
23.39082098007202	1616
23.39577054977417	1664
23.40078854560852	1771
23.40576457977295	1665
23.410809993743896	1632
23.41581082344055	1758
23.420769691467285	1715
23.425780057907104	1612
23.430795431137085	1722
23.43579936027527	1754
23.440884590148926	1619
23.445807933807373	1674
23.450881481170654	1777
23.45580220222473	1665
23.46082329750061	1634
23.46583127975464	1765
23.470815658569336	1716
23.4758620262146	1611
23.480876207351685	1715
23.485793352127075	1751
23.490829944610596	1616
23.495842933654785	1663
23.5009024143219	1764
23.50597882270813	1653
23.51103949546814	1625
23.515993356704712	1749
23.520960569381714	1702
23.52597737312317	1600
23.530969619750977	1700
23.535977602005005	1731
23.540995597839355	1598
23.54590153694153	1652
23.5509033203125	1745
23.555903434753418	1629
23.56092143058777	1607
23.565932035446167	1734
23.57095694541931	1683
23.57597327232361	1574
23.5809109210968	1678
23.585917949676514	1716
23.590912103652954	1584
23.595927238464355	1632
23.601033687591553	1731
23.606128215789795	1612
23.611159801483154	1589
23.6161527633667	1718
23.621121168136597	1664
23.62607431411743	1562
23.63104748725891	1666
23.636075496673584	1685
23.64109468460083	1542
23.646049737930298	1583
23.651052236557007	1679
23.65604281425476	1565
23.66104006767273	1520
23.666088104248047	1629
23.671018600463867	1585
23.67600965499878	1526
23.68100595474243	1659
23.68597912788391	1675
23.69096851348877	1524
23.695946216583252	1575
23.700984239578247	1689
23.70604634284973	1587
23.71112847328186	1566
23.716317415237427	1695
23.72128987312317	1642
23.72628927230835	1552
23.731296062469482	1665
23.73631000518799	1683
23.74136209487915	1548
23.746363878250122	1612
23.75136923789978	1706
23.756345748901367	1589
23.761302947998047	1571
23.766285181045532	1698
23.771229028701782	1641
23.776153802871704	1519
23.781108140945435	1451
23.785999298095703	1197
23.790923595428467	758
23.7958402633667	697
23.80081057548523	920
23.805721282958984	813
23.81056237220764	607
23.815481185913086	960
23.820403814315796	1619
23.825340270996094	2277
23.830360174179077	2528
23.835331916809082	2037
23.84035062789917	1512
23.845420360565186	1546
23.85042428970337	1737
23.85541796684265	1629
23.860321521759033	1531
23.865334272384644	1655
23.87037992477417	1645
23.875431537628174	1514
23.88045358657837	1590
23.885478019714355	1648
23.890445470809937	1514
23.895464420318604	1526
23.900378942489624	1634
23.90536594390869	1539
23.91036057472229	1476
23.915517568588257	1595
23.920446395874023	1569
23.925453662872314	1437
23.930377960205078	1524
23.93535089492798	1579
23.940431833267212	1439
23.94545292854309	1452
23.950531244277954	1559
23.95546841621399	1457
23.960389137268066	1385
23.965442419052124	1494
23.97041130065918	1458
23.975463151931763	1325
23.98051118850708	1405
23.985496520996094	1443
23.99054718017578	1287
23.99550223350525	1290
24.000563621520996	1384
24.00559949874878	1264
24.01071000099182	1189
24.015737533569336	1308
24.02080225944519	1265
24.02578067779541	1156
24.030802011489868	1261
24.035834074020386	1311
24.040868759155273	1172
24.045944929122925	1226
24.051013946533203	1356
24.055965662002563	1286
24.06100845336914	1295
24.065980195999146	1479
24.070892572402954	1498
24.07593083381653	1446
24.0809588432312	1604
24.085897207260132	1691
24.09084916114807	1593
24.095863819122314	1659
24.100910663604736	1792
24.105896949768066	1706
24.110929012298584	1678
24.115949153900146	1816
24.12120270729065	1774
24.126142501831055	1678
24.131169080734253	1792
24.13609504699707	1824
24.14119291305542	1681
24.146199226379395	1733
24.15114951133728	1827
24.15621781349182	1715
24.161164045333862	1686
24.166121244430542	1810
24.171091079711914	1757
24.17611074447632	1656
24.181124210357666	1765
24.186137914657593	1794
24.19112253189087	1655
24.19614005088806	1708
24.201071739196777	1801
24.20613121986389	1681
24.211227416992188	1652
24.2162663936615	1786
24.221258640289307	1728
24.226224899291992	1624
24.23123335838318	1737
24.236199855804443	1773
24.24136185646057	1635
24.246296644210815	1692
24.251270294189453	1788
24.256292819976807	1671
24.2612566947937	1645
24.266228675842285	1771
24.271310329437256	1722
24.276286602020264	1629
24.281296730041504	1741
24.286322832107544	1762
24.29133892059326	1627
24.296249628067017	1695
24.301294803619385	1788
24.306274890899658	1672
24.311285257339478	1644
24.316274881362915	1777
24.321282625198364	1730
24.32614517211914	1627
24.33122229576111	1734
24.33622717857361	1763
24.34126043319702	1629
24.346275329589844	1687
24.351311683654785	1785
24.356308221817017	1671
