0.00022983551025390625	1449
0.00042366981506347656	1354
0.0005977153778076172	1355
0.0007665157318115234	1414
0.0009326934814453125	1344
0.0010986328125	1300
0.0012619495391845703	1369
0.00142669677734375	1339
0.0015926361083984375	1261
0.0017573833465576172	1314
0.0019216537475585938	1347
0.002085447311401367	1260
0.0022509098052978516	1272
0.002415180206298828	1347
0.0025787353515625	1291
0.0027544498443603516	1259
0.0029184818267822266	1348
0.0030825138092041016	1349
0.0032460689544677734	1298
0.0034096240997314453	1391
0.0035741329193115234	1465
0.003738880157470703	1424
0.0039031505584716797	1485
0.004065752029418945	1600
0.004229545593261719	1581
0.004393100738525391	1594
0.004557609558105469	1705
0.004723310470581055	1706
0.004889249801635742	1657
0.0051538944244384766	1632
0.0059239864349365234	1465
0.010962486267089844	1513
0.015916824340820312	1648
0.020975112915039062	1513
0.025913000106811523	1459
0.030884265899658203	1600
0.0359492301940918	1543
0.040923118591308594	1411
0.04598665237426758	1524
0.050960540771484375	1563
0.05603766441345215	1399
0.06108212471008301	1449
0.06603598594665527	1559
0.0711050033569336	1411
0.07616996765136719	1366
0.08123946189880371	1527
0.08629322052001953	1451
0.0912923812866211	1338
0.0962367057800293	1464
0.10122418403625488	1492
0.10621523857116699	1340
0.11120033264160156	1419
0.11623096466064453	1543
0.12122297286987305	1398
0.1262834072113037	1373
0.13132190704345703	1547
0.13636493682861328	1483
0.1413428783416748	1387
0.14629817008972168	1554
0.15119338035583496	1619
0.15620636940002441	1499
0.16122889518737793	1605
0.1661367416381836	1760
0.1711118221282959	1647
0.17609906196594238	1630
0.18114328384399414	1808
0.18618416786193848	1765
0.1913318634033203	1651
0.1964738368988037	1781
0.201446533203125	1808
0.20638704299926758	1659
0.21136879920959473	1734
0.21633028984069824	1845
0.2213284969329834	1696
0.22618651390075684	1665
0.23121857643127441	1826
0.2362208366394043	1761
0.24122071266174316	1636
0.24621939659118652	1766
0.25118470191955566	1802
0.25616002082824707	1639
0.2612943649291992	1700
0.266294002532959	1814
0.27129292488098145	1671
0.27626657485961914	1633
0.28125429153442383	1775
0.28617072105407715	1719
0.29114341735839844	1610
0.2961440086364746	1740
0.30114316940307617	1774
0.30619120597839355	1614
0.3111600875854492	1668
0.31618452072143555	1796
0.3211545944213867	1659
0.3261275291442871	1617
0.331101655960083	1773
0.3360714912414551	1717
0.34106969833374023	1589
0.34612131118774414	1716
0.3510873317718506	1764
0.35608625411987305	1603
0.36111950874328613	1661
0.3660719394683838	1788
0.37114882469177246	1648
0.37616729736328125	1620
0.3810904026031494	1775
0.3861124515533447	1704
0.39119935035705566	1586
0.39624547958374023	1734
0.401242733001709	1779
0.4062039852142334	1634
0.41134190559387207	1706
0.4163682460784912	1823
0.42146897315979004	1670
0.4264676570892334	1638
0.4313814640045166	1787
0.43634724617004395	1706
0.4413430690765381	1573
0.44638895988464355	1709
0.45145249366760254	1714
0.4565296173095703	1546
0.46152186393737793	1641
0.4666154384613037	1760
0.4716024398803711	1602
0.47678494453430176	1587
0.48183178901672363	1728
0.48679471015930176	1630
0.4918851852416992	1553
0.49685001373291016	1692
0.5018024444580078	1671
0.5068633556365967	1533
0.5119462013244629	1634
0.5169193744659424	1707
0.5219302177429199	1553
0.5269691944122314	1557
0.5319159030914307	1536
0.5368688106536865	1234
0.5418417453765869	938
0.5467498302459717	979
0.5516574382781982	1007
0.556849479675293	808
0.5617265701293945	925
0.5665035247802734	1426
0.5715303421020508	1899
0.5765106678009033	2374
0.5815393924713135	2187
0.5865688323974609	1538
0.5916247367858887	1333
0.5966417789459229	1597
0.6016407012939453	1621
0.6066286563873291	1439
0.6116147041320801	1523
0.6165552139282227	1641
0.6216278076171875	1503
0.6265842914581299	1492
0.6316144466400146	1621
0.6367888450622559	1520
0.6417357921600342	1450
0.6467151641845703	1587
0.6517179012298584	1571
0.6567103862762451	1427
0.6616389751434326	1507
0.6666457653045654	1582
0.6716163158416748	1437
0.6767432689666748	1444
0.6816093921661377	1560
0.6866376399993896	1463
0.6916613578796387	1414
0.6966648101806641	1536
0.7016909122467041	1484
0.7067618370056152	1374
0.7120075225830078	1485
0.7169930934906006	1485
0.7220664024353027	1332
0.7269890308380127	1418
0.7320513725280762	1504
0.7371165752410889	1351
0.7420608997344971	1347
0.7470376491546631	1464
0.7520010471343994	1354
0.7569327354431152	1286
0.7619473934173584	1435
0.7669224739074707	1406
0.7719480991363525	1265
0.7769174575805664	1394
0.7820150852203369	1466
0.7869789600372314	1309
0.7919859886169434	1361
0.7968957424163818	1494
0.8018624782562256	1395
0.8069145679473877	1394
0.8119034767150879	1555
0.8169088363647461	1500
0.8218863010406494	1418
0.8269104957580566	1603
0.8318297863006592	1686
0.8368630409240723	1552
0.841860294342041	1621
0.8468520641326904	1750
0.8518493175506592	1632
0.8568732738494873	1613
0.8618698120117188	1780
0.8668432235717773	1731
0.8718178272247314	1607
0.8767666816711426	1728
0.8818259239196777	1769
0.8868086338043213	1623
0.8919715881347656	1666
0.8968775272369385	1767
0.9018676280975342	1655
0.9069552421569824	1620
0.9119837284088135	1733
0.9170849323272705	1678
0.9221038818359375	1582
0.9270777702331543	1690
0.9320168495178223	1716
0.9371507167816162	1589
0.9421935081481934	1641
0.9471228122711182	1710
0.9521193504333496	1595
0.9571502208709717	1585
0.9621734619140625	1712
0.967139482498169	1648
0.972142219543457	1561
0.9770710468292236	1674
0.9821488857269287	1712
0.9870986938476562	1566
0.9921214580535889	1606
0.9970974922180176	1702
1.0020923614501953	1582
1.0071215629577637	1520
1.0121715068817139	1698
1.0171518325805664	1700
1.0222878456115723	1569
1.0272645950317383	1634
1.0323095321655273	1673
1.0374336242675781	1528
1.0424072742462158	1565
1.0473825931549072	1705
1.052410364151001	1645
1.0573210716247559	1607
1.062377691268921	1696
1.0674383640289307	1629
1.0724272727966309	1521
1.077453851699829	1629
1.0824475288391113	1670
1.0874872207641602	1534
1.0924596786499023	1529
1.0974748134613037	1569
1.1024765968322754	1507
1.1075239181518555	1573
1.112534999847412	1671
1.1175727844238281	1635
1.1226093769073486	1577
1.127640962600708	1601
1.1326563358306885	1617
1.1376125812530518	1571
1.1426093578338623	1579
1.1475656032562256	1717
1.1525816917419434	1589
1.1575839519500732	1570
1.1626408100128174	1676
1.1676182746887207	1616
1.1726155281066895	1472
1.1776039600372314	1538
1.1825652122497559	1643
1.187617540359497	1558
1.1925857067108154	1515
1.1976404190063477	1545
1.20265793800354	1517
1.2077171802520752	1565
1.2126753330230713	1642
1.2176897525787354	1621
1.2227096557617188	1498
1.2276954650878906	1427
1.2328064441680908	1560
1.2378783226013184	1536
1.24275803565979	1626
1.2477490901947021	1662
1.2527191638946533	1497
1.2577171325683594	1336
1.2627315521240234	1203
1.2677886486053467	899
1.2727329730987549	667
1.277583360671997	816
1.2824678421020508	963
1.2873444557189941	892
1.2922589778900146	1333
1.2972307205200195	2055
1.3022778034210205	2385
1.3072543144226074	2008
1.312230110168457	1591
1.317328929901123	1489
1.322328805923462	1370
1.3274202346801758	1482
1.3323719501495361	1600
1.3372712135314941	1552
1.3424067497253418	1539
1.34743332862854	1546
1.3524651527404785	1439
1.357466459274292	1360
1.3624403476715088	1479
1.367525577545166	1521
1.372544765472412	1443
1.3774757385253906	1423
1.3825547695159912	1385
1.3875455856323242	1297
1.3925929069519043	1460
1.3975629806518555	1531
1.4025888442993164	1408
1.4076378345489502	1378
1.4126925468444824	1470
1.4176456928253174	1402
1.4227182865142822	1310
1.4277169704437256	1381
1.4326937198638916	1376
1.4376959800720215	1306
1.4426801204681396	1363
1.4476194381713867	1427
1.452615737915039	1346
1.457759141921997	1272
1.4626760482788086	1315
1.4676384925842285	1307
1.4726431369781494	1261
1.477701187133789	1302
1.4826338291168213	1316
1.4876067638397217	1220
1.4926631450653076	1230
1.4976418018341064	1336
1.5026049613952637	1316
1.5075533390045166	1267
1.5125603675842285	1331
1.5175197124481201	1358
1.5225815773010254	1286
1.5275976657867432	1333
1.532623529434204	1405
1.5376205444335938	1373
1.542881965637207	1407
1.5477402210235596	1496
1.5527398586273193	1493
1.5577220916748047	1502
1.562734842300415	1592
1.567772626876831	1589
1.5727479457855225	1539
1.5777525901794434	1630
1.582834243774414	1694
1.587834119796753	1637
1.5927784442901611	1650
1.597834587097168	1724
1.6028110980987549	1688
1.6078219413757324	1650
1.6129324436187744	1708
1.6179018020629883	1690
1.6229240894317627	1631
1.6279292106628418	1684
1.6329774856567383	1703
1.6380023956298828	1618
1.6430256366729736	1622
1.64796781539917	1689
1.6529858112335205	1658
1.65804123878479	1647
1.6630580425262451	1709
1.6680359840393066	1690
1.6731288433074951	1635
1.678131103515625	1682
1.682999610900879	1709
1.6880030632019043	1630
1.6929562091827393	1637
1.6980688571929932	1699
1.703057050704956	1646
1.7080552577972412	1615
1.713090419769287	1667
1.7181048393249512	1649
1.7231850624084473	1608
1.7282319068908691	1682
1.7331578731536865	1703
1.7381103038787842	1629
1.7430875301361084	1650
1.7480735778808594	1714
1.7530994415283203	1657
1.7580487728118896	1613
1.7630283832550049	1685
1.767958402633667	1688
1.773014783859253	1636
1.7780835628509521	1692
1.7831029891967773	1722
1.7881627082824707	1646
1.7932240962982178	1645
1.79823899269104	1682
1.8032805919647217	1618
1.808347225189209	1618
1.813429355621338	1705
1.8184499740600586	1694
1.8234269618988037	1631
1.82834792137146	1660
1.8333461284637451	1688
1.8383886814117432	1640
1.8433640003204346	1657
1.8483095169067383	1718
1.853332757949829	1679
1.8582754135131836	1672
1.8633041381835938	1746
1.8683106899261475	1726
1.8733289241790771	1667
1.8783290386199951	1696
1.8833372592926025	1714
1.8882980346679688	1640
1.8933131694793701	1632
1.8982751369476318	1674
1.9033005237579346	1623
1.9083106517791748	1609
1.913353443145752	1665
1.918349027633667	1653
1.9234309196472168	1623
1.9283945560455322	1683
1.933372974395752	1696
1.9383482933044434	1587
1.943373203277588	1580
1.9482717514038086	1652
1.9533519744873047	1629
1.9583408832550049	1608
1.9632573127746582	1656
1.968252182006836	1624
1.9732327461242676	1536
1.9782354831695557	1563
1.9831795692443848	1536
1.9881775379180908	1272
1.9932422637939453	1039
1.9982411861419678	870
2.0031378269195557	796
2.008061647415161	958
2.012883424758911	1106
2.0179426670074463	1156
2.0229947566986084	1539
2.0279858112335205	2222
2.0329577922821045	2601
2.0379550457000732	2069
2.0429394245147705	1559
2.0479040145874023	1545
2.0529167652130127	1569
2.0579636096954346	1548
2.0630648136138916	1579
2.068129301071167	1552
2.0731937885284424	1493
2.0782530307769775	1527
2.0831401348114014	1533
2.088212490081787	1446
2.0932199954986572	1470
2.098280668258667	1549
2.1032989025115967	1513
2.1083219051361084	1480
2.113333225250244	1518
2.118377447128296	1476
2.123424768447876	1419
2.1285343170166016	1472
2.133463144302368	1476
2.138463020324707	1404
2.143458127975464	1454
2.148503541946411	1514
2.1535027027130127	1429
2.1585328578948975	1390
2.1635217666625977	1455
2.1685774326324463	1428
2.1735544204711914	1364
2.178574323654175	1404
2.1835994720458984	1406
2.1886446475982666	1336
2.1937193870544434	1356
2.198721170425415	1395
2.2037243843078613	1339
2.2087225914001465	1329
2.213879108428955	1392
2.2188782691955566	1361
2.2238759994506836	1310
2.228865146636963	1366
2.2339892387390137	1386
2.2389605045318604	1330
2.2438833713531494	1368
2.2489101886749268	1424
2.253980875015259	1383
2.258906841278076	1402
2.263934373855591	1496
2.2689929008483887	1495
2.2739408016204834	1482
2.278909921646118	1578
2.283900260925293	1628
2.2890143394470215	1600
2.294015884399414	1667
2.2990009784698486	1734
2.304048776626587	1688
2.309082508087158	1713
2.3140900135040283	1781
2.319126844406128	1742
2.324124813079834	1710
2.3291375637054443	1784
2.3342533111572266	1788
2.33933162689209	1726
2.3443763256073	1766
2.349358558654785	1796
2.354391098022461	1729
2.3593146800994873	1746
2.3643710613250732	1810
2.3693580627441406	1748
2.3743560314178467	1690
2.3794586658477783	1745
2.3845326900482178	1741
2.3894622325897217	1693
2.394488573074341	1754
2.3994860649108887	1780
2.404480218887329	1695
2.4094879627227783	1705
2.414484977722168	1768
2.419562578201294	1719
2.424509286880493	1690
2.429488182067871	1756
2.4344565868377686	1747
2.4395592212677	1685
2.444632053375244	1734
2.449681520462036	1756
2.454627752304077	1686
2.4595963954925537	1701
2.4645919799804688	1747
2.469573736190796	1676
2.4745805263519287	1654
2.479520320892334	1720
2.4845328330993652	1703
2.4895076751708984	1646
2.494542360305786	1696
2.4995667934417725	1705
2.504629373550415	1619
2.5096499919891357	1651
2.5145695209503174	1733
2.519505262374878	1692
2.5244815349578857	1664
2.529524564743042	1731
2.5345468521118164	1716
2.5395781993865967	1663
2.544567346572876	1722
2.549562692642212	1762
2.554574966430664	1701
2.5595285892486572	1723
2.5645592212677	1782
2.569606304168701	1722
2.5744950771331787	1682
2.579519510269165	1731
2.584529161453247	1707
2.589488983154297	1649
2.594517707824707	1707
2.5994904041290283	1744
2.604588031768799	1688
2.6094982624053955	1704
2.614515542984009	1754
2.6195502281188965	1687
2.6244747638702393	1660
2.6296019554138184	1742
2.6345958709716797	1723
2.6395816802978516	1648
2.6445493698120117	1695
2.6495108604431152	1730
2.6545183658599854	1656
2.659491539001465	1616
2.6645214557647705	1595
2.669599771499634	1338
2.674567222595215	1069
2.6795685291290283	909
2.6844370365142822	707
2.6894078254699707	669
2.6943819522857666	913
2.699284315109253	1078
2.7042012214660645	1308
2.7092106342315674	2129
2.714205741882324	2862
2.71932053565979	2475
2.7242836952209473	1729
2.7292897701263428	1650
2.734309673309326	1797
2.739384651184082	1736
2.7443628311157227	1648
2.7493045330047607	1614
2.7544643878936768	1549
2.759413242340088	1595
2.7643895149230957	1659
2.7693581581115723	1586
2.7744064331054688	1540
2.779376745223999	1610
2.784384250640869	1598
2.789350748062134	1523
2.794384241104126	1561
2.7994775772094727	1578
2.8045308589935303	1495
2.8095247745513916	1520
2.8145716190338135	1580
2.8195793628692627	1501
2.8246145248413086	1455
2.829538583755493	1529
2.834580421447754	1515
2.839616537094116	1449
2.8446216583251953	1494
2.8495864868164062	1515
2.854693651199341	1431
2.8595974445343018	1445
2.864602565765381	1497
2.8695571422576904	1422
2.874573230743408	1389
2.8795676231384277	1464
2.884565830230713	1438
2.889540672302246	1359
2.8945186138153076	1412
2.899627208709717	1448
2.9046266078948975	1377
2.9095754623413086	1395
2.9146289825439453	1467
2.919597625732422	1414
2.9245924949645996	1394
2.9295761585235596	1474
2.9345192909240723	1469
2.939710855484009	1418
2.9447085857391357	1492
2.949645519256592	1548
2.9546568393707275	1506
2.959728240966797	1564
2.964776039123535	1650
2.969850778579712	1620
2.974848508834839	1640
2.9798576831817627	1735
2.9848592281341553	1732
2.9898664951324463	1696
2.9949095249176025	1774
2.999904155731201	1808
3.0049755573272705	1737
3.009941816329956	1773
3.0149154663085938	1838
3.0198843479156494	1774
3.0249316692352295	1746
3.0299806594848633	1811
3.0349488258361816	1785
3.039888620376587	1728
3.0448756217956543	1784
3.0498855113983154	1801
3.054860830307007	1724
3.059861660003662	1751
3.0648787021636963	1806
3.0698423385620117	1737
3.0748403072357178	1711
3.0798234939575195	1781
3.084878921508789	1749
3.0899064540863037	1683
3.0949034690856934	1745
3.099889039993286	1776
3.104895830154419	1694
3.1099355220794678	1713
3.1150083541870117	1767
3.120002269744873	1703
3.1250522136688232	1694
3.1301255226135254	1770
3.1351191997528076	1730
3.1401281356811523	1672
3.1451714038848877	1737
3.1502113342285156	1750
3.155330181121826	1673
3.160400152206421	1714
3.165301561355591	1768
3.1703524589538574	1695
3.1752824783325195	1701
3.1803407669067383	1775
3.1853702068328857	1723
3.19036865234375	1680
3.195333242416382	1772
3.2003321647644043	1786
3.205335855484009	1711
3.2103588581085205	1761
3.2152976989746094	1802
3.2202656269073486	1729
3.2251603603363037	1722
3.230161190032959	1782
3.2352347373962402	1714
3.2401812076568604	1650
3.245198965072632	1721
3.250261068344116	1730
3.255260705947876	1672
3.260178804397583	1720
3.265255928039551	1755
3.2702815532684326	1667
3.275324821472168	1660
3.2803151607513428	1734
3.285287380218506	1691
3.290242910385132	1639
3.295197010040283	1698
3.3001630306243896	1692
3.30521559715271	1613
3.3102126121520996	1610
3.315229892730713	1584
3.3203868865966797	1335
3.325327157974243	1125
3.3303325176239014	1026
3.335383653640747	819
3.3402538299560547	779
3.345200538635254	1006
3.3502135276794434	1072
3.3550970554351807	1034
3.3600893020629883	1704
3.365156650543213	2676
3.370225429534912	2666
3.3752212524414062	1905
3.380218982696533	1612
3.385204553604126	1688
3.390225648880005	1752
3.3952414989471436	1724
3.400233507156372	1596
3.4053587913513184	1504
3.4103055000305176	1596
3.4153406620025635	1662
3.4203357696533203	1568
3.42541241645813	1554
3.43038010597229	1620
3.435458183288574	1561
3.440485954284668	1516
3.4455933570861816	1584
3.4505836963653564	1572
3.45552396774292	1507
3.4604713916778564	1554
3.4655544757843018	1581
3.4705536365509033	1492
3.4755184650421143	1487
3.480501651763916	1547
3.4855637550354004	1486
3.4906671047210693	1444
3.4956917762756348	1511
3.500727891921997	1491
3.5058107376098633	1426
3.510812759399414	1469
3.5158121585845947	1484
3.520811080932617	1396
3.5258145332336426	1403
3.5308592319488525	1448
3.5358574390411377	1375
3.5408589839935303	1346
3.545917510986328	1425
3.550930976867676	1402
3.556065082550049	1334
3.5610668659210205	1401
3.5659961700439453	1431
3.5710504055023193	1342
3.57604718208313	1372
3.581035614013672	1442
3.5860562324523926	1392
3.5910778045654297	1382
3.5960726737976074	1486
3.6010046005249023	1487
3.606078863143921	1445
3.6111202239990234	1536
3.6160831451416016	1592
3.6211700439453125	1558
3.6261730194091797	1628
3.631134033203125	1714
3.6361136436462402	1677
3.641108274459839	1676
3.646284341812134	1766
3.651278495788574	1735
3.656273603439331	1684
3.6612837314605713	1764
3.666332721710205	1797
3.671333074569702	1722
3.6763062477111816	1752
3.6813862323760986	1801
3.686368942260742	1737
3.691342353820801	1721
3.696309804916382	1785
3.7013096809387207	1751
3.7063093185424805	1694
3.711287498474121	1753
3.716254472732544	1762
3.7212533950805664	1665
3.7262847423553467	1702
3.7312910556793213	1768
3.7362754344940186	1684
3.741288423538208	1654
3.746309757232666	1733
3.7513785362243652	1702
3.756450891494751	1640
3.7614564895629883	1699
3.7664401531219482	1704
3.7714614868164062	1622
3.7765002250671387	1659
3.7816083431243896	1718
3.7865614891052246	1650
3.791475534439087	1637
3.7965006828308105	1711
3.8015248775482178	1673
3.8066298961639404	1614
3.811648368835449	1680
3.816622495651245	1700
3.8215694427490234	1626
3.826545476913452	1661
3.831573963165283	1716
3.836531400680542	1643
3.8415465354919434	1640
3.846451759338379	1722
3.851452112197876	1694
3.856414794921875	1650
3.8614234924316406	1718
3.866399049758911	1745
3.871424913406372	1661
3.876415729522705	1688
3.8813915252685547	1736
3.8863651752471924	1654
3.8913915157318115	1623
3.8964781761169434	1684
3.901416778564453	1645
3.906331777572632	1580
3.9113759994506836	1646
3.9163691997528076	1674
3.921368360519409	1603
3.926534652709961	1629
3.9315147399902344	1671
3.9365012645721436	1593
3.9414780139923096	1578
3.946455717086792	1655
3.9514293670654297	1611
3.9564290046691895	1553
3.961416482925415	1618
3.9663779735565186	1598
3.971377372741699	1444
3.976316452026367	1379
3.9814414978027344	1233
3.986438512802124	948
3.9913408756256104	798
3.996263027191162	933
4.001065969467163	1093
4.006162166595459	1039
4.011203050613403	930
4.016092300415039	1229
4.021127939224243	2010
4.026165962219238	2614
4.031153917312622	2213
4.036140203475952	1538
4.041170597076416	1462
4.0461249351501465	1697
4.051129579544067	1661
4.056183815002441	1485
4.06125283241272	1506
4.066282272338867	1567
4.07131028175354	1508
4.076366424560547	1529
4.081405162811279	1565
4.086464881896973	1488
4.091519117355347	1483
4.096572637557983	1552
4.101501703262329	1508
4.1065263748168945	1452
4.111675024032593	1516
4.116545915603638	1515
4.121594429016113	1432
4.126561403274536	1471
4.131722927093506	1514
4.136695384979248	1432
4.1417481899261475	1426
4.14674186706543	1490
4.151822566986084	1434
4.156712532043457	1377
4.161799907684326	1443
4.166765451431274	1436
4.171733856201172	1357
4.176779270172119	1393
4.181809902191162	1426
4.1867356300354	1338
4.191722631454468	1324
4.1967527866363525	1389
4.201686143875122	1344
4.206736087799072	1286
4.211662292480469	1363
4.2167181968688965	1372
4.221710205078125	1290
4.226728439331055	1337
4.231687068939209	1395
4.236716270446777	1315
4.2417378425598145	1318
4.246737241744995	1417
4.25168251991272	1391
4.256630182266235	1366
4.261645078659058	1475
4.266604661941528	1522
4.2716310024261475	1480
4.27661657333374	1553
4.281504154205322	1637
4.286464214324951	1598
4.291511297225952	1619
4.296569108963013	1716
4.301603555679321	1688
4.306649446487427	1654
4.31157660484314	1743
4.316613674163818	1760
4.321665048599243	1681
4.326781511306763	1726
4.331833839416504	1769
4.336737871170044	1690
4.341734409332275	1690
4.346765041351318	1763
4.3517632484436035	1713
4.356754541397095	1666
4.361721515655518	1735
4.366644382476807	1732
4.3716418743133545	1649
4.3766021728515625	1700
4.381603956222534	1748
4.386561870574951	1673
4.391748905181885	1664
4.396671533584595	1730
4.401759386062622	1680
4.406853914260864	1634
4.411818981170654	1708
4.416817903518677	1705
4.421824932098389	1625
4.426918268203735	1675
4.431899547576904	1718
4.436829090118408	1642
4.441719055175781	1641
4.446717739105225	1713
4.451732397079468	1669
4.456848382949829	1623
4.461840629577637	1699
4.466858863830566	1705
4.471867799758911	1635
4.476779937744141	1678
4.4818150997161865	1720
4.486880302429199	1649
4.491868019104004	1659
4.496924638748169	1733
4.5018956661224365	1689
4.506901502609253	1654
4.5118677616119385	1735
4.516954183578491	1738
4.521871089935303	1667
4.526798486709595	1712
4.53182578086853	1751
4.536822080612183	1667
4.541823148727417	1657
4.54691743850708	1703
4.5518958568573	1648
4.556836366653442	1602
4.561870336532593	1679
4.566920757293701	1682
4.571987152099609	1607
4.577023506164551	1652
4.582104921340942	1689
4.587076902389526	1608
4.592119932174683	1614
4.597275972366333	1680
4.602250099182129	1615
4.607213020324707	1573
4.612282752990723	1652
4.617251634597778	1637
4.622228384017944	1514
4.627233266830444	1518
4.6322181224823	1419
4.637247562408447	1105
4.642199277877808	892
4.647166967391968	864
4.652075529098511	928
4.656931161880493	1085
4.661992788314819	1110
4.667018890380859	1027
4.672108173370361	1455
4.677141189575195	2320
4.682131290435791	2607
4.687179327011108	1923
4.692147493362427	1500
4.697167873382568	1617
4.7021143436431885	1670
4.707209825515747	1567
4.712182521820068	1563
4.71716833114624	1560
4.722185134887695	1512
4.727181673049927	1573
4.732187032699585	1596
4.7372212409973145	1507
4.742248296737671	1509
4.74731183052063	1578
4.752380132675171	1512
4.757343053817749	1466
4.762307643890381	1546
4.7672717571258545	1533
4.7722718715667725	1456
4.777287483215332	1499
4.78231406211853	1529
4.787317514419556	1451
4.792315721511841	1462
4.797321319580078	1522
4.802281379699707	1458
4.807235956192017	1414
4.8122642040252686	1481
4.817331314086914	1455
4.822370529174805	1372
4.827351093292236	1419
4.832318544387817	1436
4.837404727935791	1350
4.8423895835876465	1362
4.847472190856934	1417
4.8525238037109375	1353
4.857640504837036	1311
4.862583160400391	1377
4.867670297622681	1357
4.872665882110596	1298
4.877611398696899	1368
4.882590293884277	1395
4.887657165527344	1313
4.892624855041504	1335
4.897644996643066	1417
4.90269923210144	1373
4.9075610637664795	1359
4.912543773651123	1469
4.917581796646118	1492
4.92269492149353	1470
4.927642583847046	1571
4.932606220245361	1631
4.93758225440979	1582
4.942585229873657	1627
4.947793245315552	1713
4.952844142913818	1676
4.9578611850738525	1687
4.962998628616333	1768
4.967992305755615	1742
4.97302508354187	1686
4.9780402183532715	1763
4.983013153076172	1787
4.988009452819824	1708
4.992947578430176	1735
4.998039245605469	1783
5.003016471862793	1727
5.008065223693848	1712
5.013118028640747	1777
5.018141031265259	1733
5.023089408874512	1661
5.028101921081543	1728
5.03313136100769	1754
5.038131952285767	1662
5.043110370635986	1689
5.0480852127075195	1740
5.053115129470825	1662
5.05811619758606	1662
5.063116788864136	1744
5.06806755065918	1706
5.07315468788147	1629
5.078116178512573	1692
5.083137512207031	1718
5.088127851486206	1640
5.093055486679077	1670
5.0980424880981445	1721
5.102986097335815	1647
5.108017444610596	1636
5.113036155700684	1725
5.117965221405029	1695
5.122965335845947	1627
5.1280128955841064	1693
5.133092403411865	1704
5.1381449699401855	1618
5.143124341964722	1674
5.148012638092041	1758
5.152986764907837	1687
5.1579976081848145	1668
5.163083553314209	1760
5.168089151382446	1724
5.173113822937012	1666
5.178112506866455	1731
5.183146953582764	1732
5.188119649887085	1634
5.193068265914917	1657
5.197972297668457	1722
5.20298433303833	1639
5.20797061920166	1610
5.212914943695068	1705
5.217916250228882	1693
5.222943305969238	1623
5.227991342544556	1682
5.232945203781128	1695
5.237872362136841	1609
5.242892503738403	1635
5.2479424476623535	1691
5.252894163131714	1603
5.257860898971558	1571
5.262976884841919	1629
5.267980337142944	1567
5.272964715957642	1448
5.278019428253174	1317
5.283041954040527	1055
5.288098573684692	708
5.293011426925659	724
5.297860860824585	1075
5.3028564453125	1212
5.307856798171997	1062
5.312868118286133	1277
5.317836284637451	1906
5.322897911071777	2475
5.327886581420898	2409
5.332923412322998	1846
5.3379294872283936	1497
5.342959880828857	1625
5.348020553588867	1718
5.352942228317261	1564
5.358091354370117	1490
5.36314845085144	1595
5.368010997772217	1589
5.372986793518066	1508
5.377997636795044	1555
5.382995843887329	1576
5.3881165981292725	1474
5.393088340759277	1498
5.398143768310547	1581
5.403234243392944	1496
5.408217191696167	1459
5.413335084915161	1544
5.418254375457764	1498
5.423322916030884	1422
5.42833137512207	1505
5.433358907699585	1522
5.4382874965667725	1422
5.443226099014282	1456
5.448202848434448	1509
5.453321695327759	1418
5.458341598510742	1389
5.463318824768066	1469
5.468293190002441	1428
5.473315954208374	1346
5.478332042694092	1417
5.483311414718628	1433
5.488281488418579	1309
5.49325704574585	1336
5.498324871063232	1409
5.5033180713653564	1319
5.508361577987671	1282
5.513273000717163	1371
5.518238544464111	1340
5.5232086181640625	1262
5.5282135009765625	1352
5.533268690109253	1392
5.53829288482666	1294
5.543316841125488	1330
5.548311948776245	1431
5.553318977355957	1392
5.558288097381592	1412
5.563241720199585	1551
5.568114280700684	1561
5.573246955871582	1517
5.578265428543091	1625
5.583190441131592	1686
5.5881640911102295	1618
5.593198537826538	1666
5.598171710968018	1756
5.603195428848267	1704
5.608139514923096	1685
5.613147020339966	1779
5.618175029754639	1750
5.623142957687378	1681
5.62814474105835	1753
5.633088111877441	1791
5.638093948364258	1697
5.643113374710083	1711
5.648119211196899	1780
5.653074264526367	1705
5.658091306686401	1669
5.663196325302124	1755
5.6681928634643555	1733
5.673140287399292	1659
5.67811393737793	1723
5.683155298233032	1750
5.688152074813843	1657
5.693174123764038	1680
5.698120594024658	1746
5.703140735626221	1680
5.708112716674805	1646
5.713123559951782	1718
5.718196868896484	1695
5.7233874797821045	1627
5.728366136550903	1695
5.7333457469940186	1722
5.73839807510376	1637
5.74340033531189	1672
5.748395204544067	1743
5.753448963165283	1671
5.758477687835693	1647
5.763512134552002	1727
5.768500328063965	1697
5.773558139801025	1640
5.778448104858398	1722
5.783414363861084	1761
5.788524866104126	1681
5.793488502502441	1716
5.798616409301758	1777
5.803648233413696	1701
5.808699607849121	1692
5.813711166381836	1777
5.818676710128784	1727
5.823651552200317	1633
5.828664779663086	1691
5.833608865737915	1710
5.83862829208374	1633
5.8436079025268555	1676
5.848593473434448	1742
5.8536295890808105	1661
5.85857367515564	1638
5.863641738891602	1712
5.868666887283325	1670
5.873668670654297	1610
5.8788111209869385	1689
5.883795499801636	1693
5.888751268386841	1601
5.893815279006958	1642
5.898727178573608	1676
5.903761625289917	1568
5.908762454986572	1450
5.913715839385986	1271
5.918734550476074	934
5.92368483543396	660
5.928560256958008	763
5.933487892150879	1020
5.93855881690979	978
5.943458557128906	946
5.948338270187378	1409
5.953350305557251	2112
5.958358287811279	2594
5.963320732116699	2266
5.968271970748901	1670
5.973344326019287	1516
5.978320837020874	1689
5.983241558074951	1682
5.988263130187988	1521
5.9933202266693115	1542
5.998295307159424	1631
6.003386497497559	1568
6.0083842277526855	1538
6.013429164886475	1611
6.018396377563477	1566
6.023446798324585	1491
6.028424501419067	1556
6.03335976600647	1577
6.0384361743927	1488
6.0434184074401855	1517
6.0485029220581055	1569
6.053447723388672	1491
6.058459758758545	1474
6.0634446144104	1550
6.068493366241455	1505
6.073458433151245	1432
6.078446865081787	1491
6.08342432975769	1503
6.088589191436768	1411
6.093692064285278	1444
6.098698854446411	1494
6.103768825531006	1400
6.108868598937988	1373
6.11384916305542	1443
6.1188719272613525	1389
6.123931646347046	1318
6.128962278366089	1392
6.133946418762207	1397
6.138888359069824	1307
6.143865585327148	1347
6.148869276046753	1404
6.153921604156494	1319
6.158944368362427	1318
6.163902282714844	1407
6.168996572494507	1372
6.174045562744141	1329
6.179022550582886	1421
6.18404746055603	1453
6.1889448165893555	1403
6.194062948226929	1489
6.1990580558776855	1582
6.2039923667907715	1540
6.208991765975952	1575
6.213998079299927	1688
6.218942403793335	1666
6.224016189575195	1638
6.229049921035767	1738
6.234072685241699	1753
6.239045143127441	1679
6.244067192077637	1732
6.248977422714233	1788
6.253944635391235	1711
6.258920907974243	1704
6.264031171798706	1785
6.269051790237427	1744
6.274046182632446	1694
6.279135704040527	1760
6.28401517868042	1761
6.2890424728393555	1683
6.294086217880249	1738
6.2990641593933105	1784
6.304095268249512	1697
6.309140682220459	1694
6.314127445220947	1777
6.319115877151489	1722
6.3241119384765625	1664
6.329073190689087	1738
6.334146976470947	1735
6.339148759841919	1648
6.344146728515625	1701
6.349095344543457	1757
6.354090213775635	1672
6.359149217605591	1664
6.36414909362793	1742
6.369148254394531	1693
6.374223470687866	1649
6.379226446151733	1736
6.384149074554443	1734
6.389121770858765	1646
6.394095420837402	1706
6.399099111557007	1764
6.404207468032837	1688
6.409159183502197	1694
6.414140701293945	1787
6.419187784194946	1746
6.424335956573486	1697
6.4292519092559814	1777
6.434226989746094	1780
6.439314842224121	1686
6.44431734085083	1723
6.449325084686279	1752
6.454345703125	1655
6.459376096725464	1665
6.464350938796997	1749
6.469337701797485	1697
6.474435567855835	1657
6.479473352432251	1740
6.484473705291748	1730
6.489466905593872	1639
6.494525909423828	1689
6.4995129108428955	1728
6.5045788288116455	1644
6.509531736373901	1657
6.51459813117981	1731
6.519533634185791	1664
6.524531602859497	1594
6.529505252838135	1656
6.5344672203063965	1502
6.539473533630371	1165
6.544626951217651	966
6.5495405197143555	830
6.554489374160767	763
6.559428691864014	900
6.564304351806641	946
6.569173812866211	901
6.574020862579346	1431
6.579055309295654	2422
6.583996534347534	2763
6.5890724658966064	2032
6.594069004058838	1597
6.599023342132568	1704
6.60404634475708	1750
6.60907244682312	1677
6.614198923110962	1661
6.619150400161743	1613
6.624197244644165	1593
6.6292784214019775	1677
6.634202241897583	1664
6.639178514480591	1565
6.644173860549927	1613
6.649175405502319	1664
6.654224157333374	1586
6.659230709075928	1579
6.664173126220703	1640
6.669224977493286	1586
6.674225568771362	1537
6.679174423217773	1609
6.684106111526489	1610
6.689026832580566	1523
6.694025039672852	1559
6.699084520339966	1604
6.704126358032227	1521
6.709109306335449	1519
6.714029312133789	1591
6.718985319137573	1534
6.72397255897522	1459
6.729007720947266	1527
6.73402738571167	1533
6.739123821258545	1440
6.744154214859009	1462
6.749131679534912	1501
6.754234313964844	1422
6.759227514266968	1417
6.7642271518707275	1487
6.769230127334595	1438
6.774246454238892	1389
6.779304265975952	1473
6.784259080886841	1475
6.789257526397705	1393
6.794253349304199	1451
6.799278736114502	1510
6.80425238609314	1446
6.8092756271362305	1471
6.814251899719238	1577
6.819252014160156	1562
6.824282169342041	1560
6.829302787780762	1682
6.834251403808594	1719
6.839231729507446	1672
6.844199180603027	1745
6.849178075790405	1817
6.854203701019287	1752
6.859228849411011	1762
6.864274978637695	1851
6.869250774383545	1815
6.8742969036102295	1779
6.879272937774658	1859
6.884267807006836	1861
6.889243125915527	1783
6.894352912902832	1836
6.899298906326294	1881
6.904328107833862	1786
6.909302234649658	1775
6.914376974105835	1849
6.919481515884399	1801
6.924504041671753	1759
6.929440498352051	1830
6.934355020523071	1816
6.939405202865601	1730
6.944427013397217	1787
6.949428081512451	1832
6.954502105712891	1750
6.95962381362915	1754
6.964556455612183	1824
6.969507217407227	1767
6.974515676498413	1724
6.9795591831207275	1797
6.984552621841431	1793
6.989556550979614	1722
6.994560718536377	1775
6.99955153465271	1823
7.0045084953308105	1736
7.009453773498535	1739
7.014481067657471	1815
7.019451141357422	1773
7.0244739055633545	1738
7.029530763626099	1826
7.034434795379639	1831
7.039453506469727	1768
7.044478416442871	1828
7.049453973770142	1867
7.054488658905029	1781
7.059505224227905	1781
7.0644614696502686	1844
7.0695343017578125	1765
7.074519872665405	1711
7.0796473026275635	1785
7.08466362953186	1770
7.089696884155273	1696
7.094712495803833	1767
7.099670648574829	1806
7.104669809341431	1712
7.10979437828064	1717
7.114797115325928	1786
7.119800806045532	1721
7.124802112579346	1679
7.1298558712005615	1755
7.13480019569397	1753
7.139845132827759	1670
7.144848346710205	1688
7.149806022644043	1672
7.154804706573486	1466
7.159826278686523	1252
7.164828777313232	1085
7.169829845428467	865
7.1748552322387695	866
7.1797425746917725	1083
7.184723377227783	1001
7.189729452133179	828
7.19475245475769	1408
7.199746131896973	2386
7.204851150512695	2715
7.209853410720825	2108
7.214808464050293	1647
7.219805479049683	1623
7.22485876083374	1736
7.229930877685547	1760
7.234954833984375	1647
7.240007400512695	1569
7.245004892349243	1661
7.249956369400024	1698
7.2549824714660645	1610
7.2600109577178955	1620
7.265030384063721	1674
7.269980192184448	1613
7.275055170059204	1576
7.280029535293579	1645
7.285130023956299	1619
7.29015588760376	1543
7.295305013656616	1608
7.30025315284729	1626
7.305253982543945	1533
7.3104283809661865	1562
7.315453290939331	1614
7.320457220077515	1530
7.3254969120025635	1501
7.33054256439209	1568
7.335519313812256	1529
7.34050726890564	1461
7.3455705642700195	1519
7.350571393966675	1525
7.355575084686279	1437
7.3605828285217285	1463
7.365539312362671	1505
7.370605707168579	1415
7.375647306442261	1391
7.380697727203369	1467
7.385697841644287	1430
7.390704393386841	1366
7.395671844482422	1429
7.400622367858887	1443
7.40560245513916	1356
7.410602569580078	1397
7.415672302246094	1465
7.4206743240356445	1396
7.425668716430664	1395
7.430621862411499	1502
7.435642957687378	1494
7.440701961517334	1470
7.445647239685059	1581
7.450707674026489	1633
7.455678701400757	1589
7.460776090621948	1663
7.46580958366394	1747
7.470815658569336	1690
7.475816011428833	1697
7.480746269226074	1787
7.485719442367554	1759
7.490849733352661	1719
7.495769739151001	1789
7.5008039474487305	1793
7.50582480430603	1714
7.510826587677002	1755
7.515903472900391	1802
7.520879507064819	1726
7.525858163833618	1718
7.5308592319488525	1793
7.535883665084839	1746
7.540904998779297	1693
7.545967102050781	1764
7.550954341888428	1771
7.555953025817871	1685
7.561056137084961	1721
7.566004753112793	1770
7.571003675460815	1692
7.5761072635650635	1683
7.5810136795043945	1752
7.586061000823975	1707
7.590979337692261	1657
7.596027612686157	1728
7.601033449172974	1731
7.606075048446655	1651
7.6110615730285645	1694
7.616038799285889	1741
7.621108055114746	1665
7.62613320350647	1671
7.631131410598755	1754
7.636154651641846	1702
7.64118218421936	1647
7.6462242603302	1728
7.6512627601623535	1749
7.656278610229492	1684
7.661334037780762	1739
7.666330575942993	1784
7.6713340282440186	1699
7.676378011703491	1705
7.681388854980469	1774
7.6863813400268555	1699
7.691369533538818	1630
7.696357011795044	1700
7.7013819217681885	1698
7.706406354904175	1619
7.711494207382202	1675
7.716466188430786	1721
7.721516132354736	1632
7.726503372192383	1633
7.731511116027832	1703
7.736570835113525	1646
7.741560220718384	1599
7.746424436569214	1672
7.751429319381714	1661
7.756453514099121	1584
7.761512756347656	1639
7.766507387161255	1644
7.771609306335449	1522
7.776607275009155	1429
7.781626462936401	1265
7.786625385284424	938
7.791520357131958	742
7.796441555023193	895
7.801327466964722	1067
7.8063764572143555	918
7.811253547668457	822
7.816216230392456	1278
7.821315050125122	2061
7.826356887817383	2586
7.831310987472534	2192
7.836376190185547	1573
7.841303586959839	1475
7.846203804016113	1690
7.851208686828613	1680
7.856279134750366	1509
7.8613715171813965	1545
7.866502523422241	1620
7.871447563171387	1556
7.876445055007935	1545
7.881434440612793	1604
7.886402606964111	1546
7.891428232192993	1499
7.8964807987213135	1564
7.9015583992004395	1556
7.906487464904785	1476
7.911508798599243	1522
7.9164581298828125	1561
7.92154860496521	1476
7.926659822463989	1475
7.931657314300537	1545
7.936670541763306	1484
7.94159722328186	1438
7.946561813354492	1509
7.951531648635864	1490
7.956578969955444	1400
7.961569786071777	1440
7.966497898101807	1474
7.9714484214782715	1387
7.976502418518066	1381
7.981453895568848	1444
7.986497640609741	1384
7.991518497467041	1325
7.996480941772461	1390
8.001461029052734	1386
8.006484031677246	1299
8.011532068252563	1342
8.016495943069458	1389
8.021526336669922	1310
8.026455163955688	1313
8.031455755233765	1392
8.036452770233154	1350
8.041451692581177	1311
8.046430826187134	1398
8.051410436630249	1420
8.056432008743286	1376
8.061430931091309	1467
8.066529273986816	1556
8.071475267410278	1517
8.076504468917847	1563
8.081531047821045	1665
8.086540699005127	1643
8.091468811035156	1620
8.096433401107788	1717
8.101441621780396	1730
8.10641074180603	1661
8.11140513420105	1719
8.11646294593811	1773
8.121416330337524	1703
8.126304864883423	1703
8.131303310394287	1774
8.136340379714966	1721
8.141292572021484	1665
8.146243572235107	1738
8.151292562484741	1743
8.156261205673218	1663
8.161256790161133	1703
8.166284084320068	1747
8.171278476715088	1670
8.176352739334106	1656
8.181223154067993	1726
8.186218976974487	1687
8.191197395324707	1633
8.196231126785278	1696
8.201260805130005	1700
8.20629334449768	1620
8.211313724517822	1665
8.216331005096436	1716
8.221332788467407	1638
8.226381778717041	1634
8.231385469436646	1713
8.236337184906006	1669
8.241338968276978	1617
8.246328830718994	1687
8.251418352127075	1696
8.256409168243408	1624
8.261443138122559	1669
8.266463994979858	1717
8.271393299102783	1645
8.276463747024536	1644
8.281415700912476	1729
8.2864351272583	1700
8.291469097137451	1652
8.296447038650513	1723
8.301444053649902	1722
8.306437730789185	1646
8.311415195465088	1693
8.316359758377075	1734
8.321359634399414	1634
8.326345443725586	1610
8.331316709518433	1688
8.33628249168396	1652
8.341307163238525	1603
8.346309423446655	1680
8.351318597793579	1681
8.35628366470337	1592
8.361257076263428	1630
8.36626124382019	1675
8.371311902999878	1589
8.3763587474823	1581
8.381357669830322	1653
8.38638186454773	1608
8.391358375549316	1557
8.39640736579895	1612
8.401379823684692	1581
8.406430721282959	1449
8.411383867263794	1280
8.416307926177979	1036
8.421384811401367	711
8.426278829574585	684
8.431153059005737	961
8.436278581619263	981
8.441221475601196	776
8.446100950241089	1070
8.45115327835083	1827
8.456149578094482	2460
8.461114406585693	2319
8.466132640838623	1746
8.47115969657898	1451
8.4762122631073	1539
8.481155633926392	1648
8.486152410507202	1562
8.491158723831177	1474
8.496158838272095	1552
8.501136302947998	1575
8.50611424446106	1488
8.511157989501953	1507
8.516205072402954	1556
8.521112442016602	1484
8.526111602783203	1464
8.531106948852539	1530
8.536104202270508	1492
8.541120767593384	1427
8.546087741851807	1490
8.551106929779053	1505
8.55615496635437	1416
8.561172485351562	1444
8.566192865371704	1496
8.571216583251953	1419
8.576225996017456	1394
8.581331014633179	1456
8.586445569992065	1411
8.591484546661377	1351
8.596432209014893	1414
8.601364612579346	1411
8.606459856033325	1317
8.611454248428345	1347
8.616353511810303	1386
8.621344327926636	1299
8.626326322555542	1280
8.631234407424927	1345
8.636207580566406	1298
8.64116358757019	1230
8.646130084991455	1298
8.651183843612671	1321
8.656153202056885	1236
8.661205053329468	1262
8.666206121444702	1339
8.671183586120605	1276
8.676156282424927	1272
8.68118166923523	1373
8.686131238937378	1379
8.69120717048645	1359
8.696163415908813	1465
8.701233863830566	1522
8.706164836883545	1482
8.711116552352905	1556
8.716177701950073	1643
8.7211332321167	1594
8.726109743118286	1595
8.731223583221436	1688
8.73613429069519	1671
8.741077899932861	1623
8.746037721633911	1694
8.751065254211426	1710
8.756113052368164	1630
8.761089324951172	1671
8.76603364944458	1732
8.771032094955444	1660
8.77604365348816	1637
8.781039237976074	1714
8.786055326461792	1689
8.791162729263306	1626
8.796228170394897	1686
8.801276445388794	1701
8.80622673034668	1620
8.811213254928589	1653
8.816161155700684	1705
8.821136713027954	1632
8.82617449760437	1611
8.831260681152344	1690
8.836187601089478	1657
8.841182231903076	1600
8.846158504486084	1662
8.851231098175049	1678
8.856316328048706	1602
8.861318111419678	1643
8.866409301757812	1696
8.871434211730957	1622
8.876405477523804	1610
8.881415128707886	1690
8.886526107788086	1651
8.89154839515686	1592
8.896484851837158	1661
8.901460647583008	1676
8.906434297561646	1609
8.911460161209106	1646
8.91637659072876	1697
8.921351671218872	1629
8.92635464668274	1622
8.931336164474487	1706
8.936286449432373	1680
8.941311597824097	1626
8.946306705474854	1699
8.951307535171509	1722
8.95625638961792	1638
8.961263656616211	1673
8.96628475189209	1726
8.971355199813843	1647
8.97634768486023	1608
8.981316089630127	1668
8.98630142211914	1644
8.991307020187378	1589
8.996313095092773	1655
9.001308917999268	1679
9.006339073181152	1604
9.011364936828613	1626
9.016328811645508	1669
9.021286249160767	1598
9.026326894760132	1582
9.03138780593872	1652
9.03645658493042	1614
9.041480541229248	1560
9.046511888504028	1629
9.05150318145752	1644
9.05652666091919	1558
9.061584234237671	1585
9.066666603088379	1464
9.071683168411255	1100
9.076653957366943	776
9.081433773040771	742
9.086299419403076	809
9.0912504196167	730
9.096157312393188	636
9.101125478744507	900
9.106038570404053	1550
9.110930442810059	2378
9.116012811660767	2510
9.120988845825195	1834
9.1259925365448	1452
9.130956411361694	1588
9.136028051376343	1641
9.141056537628174	1548
9.146034955978394	1573
9.150936365127563	1600
9.155986547470093	1531
9.161060810089111	1556
9.16600775718689	1608
9.171083688735962	1533
9.176159381866455	1511
9.181162118911743	1588
9.186138153076172	1552
9.191184282302856	1487
9.196231842041016	1547
9.201235294342041	1560
9.206210613250732	1474
9.211164712905884	1500
9.216161489486694	1557
9.221233367919922	1481
9.226205348968506	1452
9.231128931045532	1520
9.236129999160767	1485
9.241130113601685	1413
9.24621057510376	1474
9.251157283782959	1485
9.256286382675171	1382
9.261311769485474	1412
9.266307592391968	1462
9.27129054069519	1381
9.276284217834473	1346
9.28124475479126	1414
9.286235094070435	1379
9.291239738464355	1308
9.296210765838623	1369
9.301161527633667	1395
9.30613660812378	1313
9.311127424240112	1338
9.316089391708374	1406
9.321162223815918	1350
9.326130151748657	1334
9.331141948699951	1423
9.336158752441406	1415
9.341248035430908	1376
9.346243143081665	1482
9.35130262374878	1547
9.35620665550232	1510
9.36128830909729	1578
9.366188764572144	1668
9.371166467666626	1633
9.37622880935669	1639
9.381216049194336	1733
9.386266946792603	1717
9.391271591186523	1667
9.39638066291809	1738
9.40136432647705	1766
9.406272888183594	1694
9.411338090896606	1723
9.416245460510254	1784
9.421229839324951	1719
9.426159858703613	1691
9.431212186813354	1762
9.436279773712158	1732
9.441301822662354	1669
9.446221828460693	1730
9.451131343841553	1751
9.456154108047485	1670
9.461167097091675	1696
9.466119289398193	1749
9.471113681793213	1678
9.476098775863647	1655
9.481058597564697	1736
9.4860360622406	1715
9.491081953048706	1641
9.496051788330078	1695
9.501030921936035	1729
9.50605320930481	1652
9.511013269424438	1679
9.515958070755005	1744
9.520956754684448	1682
9.52602767944336	1657
9.530993938446045	1734
9.536026239395142	1713
9.541032552719116	1646
9.546001195907593	1710
9.550992250442505	1742
9.555918455123901	1663
9.561007022857666	1682
9.565973281860352	1750
9.570896625518799	1699
9.575844049453735	1666
9.580888986587524	1737
9.585885047912598	1719
9.590890645980835	1654
9.595865249633789	1719
9.600898504257202	1765
9.605810642242432	1690
9.610805034637451	1709
9.61586332321167	1784
9.62081527709961	1731
9.625863552093506	1692
9.630730152130127	1763
9.635705471038818	1741
9.640813112258911	1650
9.64575982093811	1683
9.650721073150635	1717
9.655735969543457	1649
9.66086459159851	1668
9.665807008743286	1736
9.670806884765625	1684
9.675808668136597	1643
9.680841445922852	1710
9.68584394454956	1688
9.69085144996643	1614
9.695871114730835	1670
9.700888395309448	1704
9.705775022506714	1621
9.710733890533447	1628
9.71573805809021	1698
9.720800876617432	1645
9.725698709487915	1614
9.730693578720093	1622
9.735771417617798	1385
9.740825891494751	1019
9.745797395706177	837
9.750680208206177	844
9.755638360977173	778
9.760436534881592	617
9.765382528305054	632
9.770309209823608	1144
9.775369882583618	1971
9.780361890792847	2664
9.78531265258789	2297
9.790323257446289	1603
9.79542064666748	1544
9.800389528274536	1704
9.805381059646606	1633
9.810374021530151	1569
9.815379619598389	1620
9.820375919342041	1593
9.825374126434326	1559
9.830382823944092	1617
9.835412740707397	1606
9.840466022491455	1528
9.845462322235107	1569
9.850554704666138	1609
9.855584144592285	1529
9.860484600067139	1537
9.86554479598999	1604
9.870484113693237	1541
9.87559962272644	1480
9.880597114562988	1549
9.885507822036743	1546
9.890540361404419	1468
9.895639181137085	1509
9.90060305595398	1549
9.905742883682251	1460
9.910847663879395	1457
9.915883779525757	1519
9.920893430709839	1455
9.925899028778076	1407
9.930738687515259	1471
9.935807466506958	1451
9.940910339355469	1373
9.945838451385498	1415
9.95089077949524	1445
9.955954313278198	1364
9.961040735244751	1377
9.966049909591675	1442
9.971084594726562	1384
9.976040363311768	1347
9.98104190826416	1427
9.98598837852478	1419
9.990918397903442	1356
9.99591326713562	1419
10.000938415527344	1470
10.005938291549683	1406
10.010807275772095	1443
10.015869855880737	1554
10.02092981338501	1539
10.025923490524292	1535
10.030879735946655	1640
10.035846948623657	1665
10.0408456325531	1624
10.045756101608276	1695
10.050732612609863	1752
10.055757522583008	1697
10.060765504837036	1718
10.065720558166504	1785
10.070732116699219	1735
10.07584834098816	1696
10.080831527709961	1781
10.08583402633667	1772
10.090939044952393	1698
10.09593152999878	1741
10.100836038589478	1785
10.105837345123291	1706
10.110801696777344	1711
10.115723609924316	1778
10.120815992355347	1726
10.125890016555786	1685
10.130905866622925	1758
10.13588809967041	1748
10.14091682434082	1670
10.14598798751831	1720
10.150948524475098	1758
10.155942440032959	1680
10.160884857177734	1685
10.165893793106079	1751
10.17087697982788	1702
10.175876140594482	1670
10.180711030960083	1744
10.185840845108032	1736
10.190866708755493	1666
10.195857286453247	1722
10.20087718963623	1752
10.205995321273804	1668
10.210952281951904	1680
10.216006994247437	1761
10.220980882644653	1709
10.226142168045044	1670
10.231086254119873	1750
10.236078023910522	1745
10.241079568862915	1677
10.246128797531128	1724
10.251155614852905	1755
10.25616717338562	1677
10.261107683181763	1701
10.266070127487183	1779
10.271048307418823	1735
10.276120662689209	1708
10.281129837036133	1783
10.286145687103271	1765
10.291119813919067	1696
10.296132564544678	1750
10.30110502243042	1759
10.3064444065094	1650
10.31141209602356	1669
10.316289186477661	1741
10.321287631988525	1677
10.326295137405396	1656
10.331327438354492	1743
10.33640742301941	1721
10.341406345367432	1645
10.346449136734009	1693
10.35149335861206	1712
10.356493711471558	1628
10.361552000045776	1652
10.366479873657227	1708
10.371517896652222	1636
10.376490354537964	1620
10.38146710395813	1696
10.386503219604492	1659
10.391546487808228	1518
10.396574974060059	1363
10.401548147201538	1125
10.406550168991089	821
10.411425590515137	796
10.416321992874146	913
10.421222925186157	747
10.42619013786316	628
10.431127309799194	1215
10.436096429824829	2115
10.441092252731323	2645
10.446158170700073	2264
10.451216220855713	1673
10.456225156784058	1518
10.461219787597656	1674
10.466312646865845	1733
10.471350193023682	1601
10.476311922073364	1548
10.481345415115356	1639
10.486320734024048	1629
10.491411209106445	1550
10.4963960647583	1599
10.501263856887817	1626
10.50629734992981	1541
10.511310338973999	1555
10.51625680923462	1614
10.521351337432861	1548
10.526414394378662	1517
10.531451225280762	1590
10.536418676376343	1564
10.541393280029297	1486
10.546395540237427	1539
10.551448583602905	1563
10.556451797485352	1478
10.561372995376587	1492
10.566346645355225	1554
10.57134747505188	1482
10.576370239257812	1435
10.58133578300476	1501
10.586290121078491	1480
10.591241836547852	1405
10.596211671829224	1445
10.60115361213684	1470
10.606195449829102	1388
10.61125111579895	1398
10.616250991821289	1457
10.621224164962769	1395
10.626224279403687	1352
10.631209373474121	1422
10.636255979537964	1413
10.64132571220398	1347
10.646303653717041	1404
10.65136456489563	1447
10.656318187713623	1381
10.661311149597168	1404
10.666318416595459	1486
10.6713228225708	1456
10.67632532119751	1462
10.681314706802368	1574
10.68643045425415	1595
10.691417455673218	1558
10.696373462677002	1649
10.701400995254517	1718
10.706496000289917	1663
10.711504459381104	1706
10.716366291046143	1787
10.721415281295776	1739
10.726398468017578	1714
10.73133659362793	1790
10.736374139785767	1778
10.741393804550171	1704
10.746384143829346	1762
10.751329183578491	1793
10.756327390670776	1708
10.761319398880005	1718
10.76636028289795	1783
10.771485805511475	1726
10.776428461074829	1696
10.781404256820679	1764
10.786399602890015	1741
10.791352033615112	1670
10.796321868896484	1729
10.801283359527588	1756
10.806309700012207	1672
10.81126356124878	1691
10.81633448600769	1768
10.821354866027832	1703
10.826335191726685	1660
10.831355333328247	1730
10.836345911026001	1717
10.841323375701904	1649
10.846258401870728	1707
10.85123348236084	1745
10.856243371963501	1664
10.861274480819702	1673
10.86632513999939	1739
10.871321201324463	1682
10.876373529434204	1651
10.881433248519897	1729
10.886478185653687	1710
10.891616344451904	1641
10.896713972091675	1705
10.901644706726074	1732
10.90662407875061	1651
10.911587953567505	1682
10.916714668273926	1749
10.921749591827393	1684
10.926907539367676	1662
10.931845426559448	1740
10.936841487884521	1721
10.941766738891602	1673
10.946805477142334	1740
10.951794147491455	1762
10.956897735595703	1689
10.961818218231201	1721
10.96688961982727	1778
10.971903800964355	1695
10.976904153823853	1650
10.98181414604187	1697
10.986791849136353	1670
10.99175214767456	1613
10.996710300445557	1678
11.001708507537842	1707
11.006719827651978	1628
11.011655330657959	1646
11.01669192314148	1705
11.0217924118042	1634
11.026735782623291	1599
11.031723260879517	1669
11.03671932220459	1644
11.041844606399536	1580
11.046852111816406	1642
11.051939487457275	1661
11.056900262832642	1578
11.061933279037476	1613
11.066930055618286	1587
11.071924448013306	1307
11.07700252532959	1014
11.08205246925354	890
11.086949348449707	844
11.091837167739868	792
11.096691608428955	702
11.101538896560669	747
11.106525659561157	1225
11.111566305160522	2083
11.116587162017822	2632
11.121604442596436	2091
11.126660585403442	1491
11.13172173500061	1533
11.136662006378174	1639
11.141643524169922	1579
11.146603107452393	1587
11.151638269424438	1613
11.156660556793213	1543
11.16170048713684	1565
11.166796207427979	1616
11.17171025276184	1554
11.176712274551392	1519
11.181878328323364	1591
11.186878681182861	1560
11.191857099533081	1494
11.196958065032959	1556
11.201953887939453	1576
11.20695972442627	1481
11.211910963058472	1505
11.216929912567139	1566
11.221948146820068	1496
11.226951599121094	1466
11.232050895690918	1533
11.237155437469482	1497
11.24217677116394	1434
11.247092485427856	1487
11.252075910568237	1494
11.257049322128296	1404
11.262026071548462	1422
11.267073154449463	1477
11.272039413452148	1402
11.276953935623169	1365
11.282025814056396	1434
11.287051677703857	1402
11.292163372039795	1332
11.297168970108032	1393
11.302178144454956	1409
11.307135343551636	1327
11.312058925628662	1359
11.317095041275024	1422
11.322077512741089	1357
11.3270423412323	1344
11.332045793533325	1435
11.337105989456177	1423
11.342043161392212	1379
11.347029447555542	1470
11.35193681716919	1526
11.357099771499634	1486
11.362060785293579	1555
11.367045640945435	1654
11.372037172317505	1618
11.377017259597778	1627
11.382007837295532	1720
11.387192726135254	1706
11.39220142364502	1665
11.397226810455322	1746
11.402203559875488	1765
11.40717601776123	1691
11.412127017974854	1726
11.4171884059906	1786
11.422177076339722	1716
11.427051067352295	1689
11.432129383087158	1761
11.437150239944458	1732
11.442270278930664	1663
11.4473237991333	1726
11.45234203338623	1745
11.45733642578125	1666
11.462283849716187	1697
11.46731162071228	1750
11.472301006317139	1675
11.477335691452026	1660
11.482313632965088	1731
11.487329483032227	1698
11.492321252822876	1646
11.497384071350098	1713
11.502375364303589	1722
11.507408618927002	1640
11.512426376342773	1678
11.517462253570557	1732
11.52240777015686	1662
11.527300357818604	1650
11.532375574111938	1723
11.537384510040283	1683
11.542459964752197	1632
11.547527551651001	1701
11.55249285697937	1709
11.557454347610474	1628
11.56238341331482	1670
11.56737732887268	1728
11.572407245635986	1662
11.577416181564331	1646
11.582385540008545	1720
11.587372064590454	1684
11.592347145080566	1631
11.597323894500732	1694
11.602386474609375	1702
11.607506513595581	1624
11.612415075302124	1668
11.617423057556152	1726
11.622376441955566	1658
11.627577543258667	1646
11.632515668869019	1726
11.637418985366821	1687
11.642325162887573	1640
11.647408723831177	1718
11.652350664138794	1742
11.657298564910889	1662
11.662280559539795	1694
11.667324304580688	1745
11.672362327575684	1677
11.677428722381592	1656
11.682421207427979	1703
11.687392711639404	1639
11.692366600036621	1581
11.697295665740967	1657
11.702410459518433	1678
11.707384586334229	1601
11.712281465530396	1634
11.717248916625977	1682
11.72223687171936	1609
11.727279424667358	1585
11.732303619384766	1662
11.737193822860718	1635
11.742148160934448	1565
11.7471764087677	1623
11.752160787582397	1646
11.757142066955566	1566
11.762203454971313	1586
11.767231702804565	1637
11.772297859191895	1528
11.777227878570557	1305
11.782289743423462	1097
11.78725290298462	806
11.792198419570923	695
11.797091245651245	888
11.801987886428833	889
11.806921005249023	723
11.811850309371948	1086
11.816858530044556	1874
11.82175350189209	2473
11.826687812805176	2274
11.831794261932373	1721
11.836870670318604	1480
11.841872692108154	1486
11.847005605697632	1597
11.852025747299194	1603
11.85697317123413	1503
11.861961126327515	1525
11.86698317527771	1595
11.871992588043213	1529
11.87697458267212	1494
11.882059097290039	1560
11.887013673782349	1543
11.89195442199707	1467
11.896878242492676	1519
11.901873111724854	1548
11.906928539276123	1467
11.911908864974976	1480
11.916931867599487	1541
11.921935558319092	1476
11.92689847946167	1438
11.931927680969238	1506
11.936920404434204	1481
11.94192099571228	1402
11.946926355361938	1450
11.951850414276123	1478
11.956930160522461	1392
11.96182632446289	1401
11.966787815093994	1458
11.97176718711853	1392
11.97676396369934	1345
11.981703042984009	1413
11.98669147491455	1394
11.991699934005737	1310
11.996619939804077	1357
12.001566410064697	1394
12.006654977798462	1310
12.011668682098389	1313
12.016668319702148	1387
12.021639823913574	1335
12.026676893234253	1296
12.031645059585571	1378
12.036632299423218	1384
12.041550636291504	1325
12.046582221984863	1393
12.051712036132812	1459
12.056708812713623	1414
12.061654090881348	1463
12.066731214523315	1571
12.071786880493164	1554
12.076730489730835	1553
12.081698656082153	1660
12.086753368377686	1677
12.091776847839355	1624
12.09687328338623	1693
12.10186505317688	1739
12.106887817382812	1668
12.111928224563599	1690
12.116898775100708	1758
12.121891975402832	1700
12.126983165740967	1668
12.131935358047485	1742
12.136918306350708	1726
12.14191746711731	1654
12.146916151046753	1711
12.151843309402466	1745
12.156809329986572	1661
12.161837577819824	1671
12.166940450668335	1740
12.171928405761719	1681
12.176843881607056	1643
12.181794166564941	1715
12.186883449554443	1704
12.191876411437988	1633
12.196877002716064	1689
12.201844692230225	1719
12.206849098205566	1643
12.21195101737976	1664
12.216902256011963	1731
12.222005844116211	1672
12.226987838745117	1641
12.231982946395874	1717
12.236993789672852	1703
12.24201488494873	1638
12.247000932693481	1694
12.25201678276062	1724
12.257023572921753	1650
12.262052059173584	1671
12.26701307296753	1735
12.272046089172363	1677
12.27707290649414	1649
12.282054662704468	1723
12.287044048309326	1709
12.29201364517212	1645
12.296977519989014	1702
12.302114725112915	1726
12.307177782058716	1644
12.312230825424194	1674
12.317280769348145	1742
12.322307109832764	1672
12.32724905014038	1646
12.332308769226074	1728
12.337265014648438	1707
12.34224009513855	1634
12.347268342971802	1692
12.352221727371216	1722
12.357237577438354	1644
12.362278938293457	1670
12.367363452911377	1737
12.37243390083313	1666
12.377468824386597	1649
12.382414817810059	1729
12.387425184249878	1711
12.392442464828491	1658
12.397477149963379	1724
12.402475833892822	1739
12.407495260238647	1657
12.412444829940796	1685
12.417420387268066	1746
12.42240309715271	1671
12.42734956741333	1624
12.432350873947144	1676
12.437411546707153	1655
12.442404508590698	1606
12.447389841079712	1668
12.452344417572021	1688
12.457388162612915	1610
12.462481021881104	1641
12.467453002929688	1689
12.472543954849243	1615
12.477575778961182	1597
12.482627153396606	1674
12.487649917602539	1641
12.492632865905762	1577
12.497642517089844	1644
12.502641916275024	1661
12.507688522338867	1574
12.512697458267212	1605
12.51771855354309	1606
12.522742986679077	1319
12.527681827545166	1012
12.53269648551941	856
12.537580966949463	821
12.54246187210083	849
12.547374725341797	823
12.552221775054932	799
12.557121992111206	1153
12.562077522277832	1903
12.567047595977783	2594
12.572019815444946	2300
12.577075481414795	1650
12.582077026367188	1544
12.58708143234253	1608
12.592072248458862	1563
12.597176551818848	1587
12.60211992263794	1601
12.607020854949951	1529
12.612031698226929	1552
12.617145299911499	1612
12.622178077697754	1538
12.627170085906982	1500
12.63219165802002	1576
12.637150526046753	1557
12.642059326171875	1478
12.647101640701294	1527
12.652154445648193	1560
12.657244205474854	1474
12.662300825119019	1492
12.667272090911865	1549
12.672300577163696	1479
12.677332639694214	1452
12.682356595993042	1517
12.687397956848145	1487
12.692418336868286	1416
12.69748044013977	1473
12.702502012252808	1484
12.70756459236145	1389
12.712515830993652	1407
12.717649459838867	1462
12.72256588935852	1384
12.72750735282898	1353
12.732612609863281	1426
12.737691640853882	1390
12.742650270462036	1317
12.747713327407837	1383
12.752681255340576	1401
12.757714986801147	1318
12.762677192687988	1357
12.767890930175781	1424
12.772880792617798	1356
12.77794861793518	1350
12.782820463180542	1435
12.787903070449829	1413
12.792901039123535	1376
12.798052549362183	1472
12.803081274032593	1508
12.808105707168579	1467
12.813090562820435	1547
12.81810212135315	1632
12.823152542114258	1589
12.828161001205444	1614
12.833232641220093	1713
12.838297367095947	1685
12.843278884887695	1651
12.848312854766846	1733
12.853347539901733	1745
12.858375072479248	1672
12.863408088684082	1720
12.868374586105347	1767
12.873554229736328	1692
12.878570318222046	1695
12.883546590805054	1767
12.888502597808838	1715
12.893487215042114	1675
12.898456573486328	1747
12.903523683547974	1735
12.908524751663208	1651
12.913532972335815	1705
12.918487787246704	1750
12.923477411270142	1663
12.928511142730713	1665
12.933507919311523	1739
12.938621282577515	1690
12.943596363067627	1646
12.948670864105225	1718
12.95369291305542	1708
12.958725452423096	1640
12.963722467422485	1696
12.968666791915894	1730
12.973666191101074	1648
12.978652238845825	1662
12.983678102493286	1734
12.988715648651123	1680
12.99370789527893	1645
12.998727560043335	1722
13.003692626953125	1714
13.008699417114258	1640
13.013701438903809	1694
13.018670558929443	1732
13.023701667785645	1652
13.028818607330322	1665
13.033798456192017	1738
13.038813829421997	1684
13.04389214515686	1644
13.048920154571533	1722
13.053911685943604	1709
13.058803796768188	1634
13.063921928405762	1695
13.069008588790894	1733
13.074002027511597	1649
13.078979730606079	1671
13.083935499191284	1740
13.088989734649658	1683
13.09402084350586	1650
13.099097728729248	1726
13.10409688949585	1712
13.109119892120361	1648
13.114140033721924	1712
13.119109153747559	1746
13.124124526977539	1666
13.12915587425232	1689
13.134275913238525	1749
13.139326095581055	1684
13.144376516342163	1666
13.149422645568848	1732
13.154456853866577	1670
13.159369707107544	1589
13.164391994476318	1663
13.16939115524292	1697
13.174415588378906	1629
13.179441213607788	1665
13.184365510940552	1719
13.189370393753052	1640
13.194329500198364	1615
13.199382543563843	1690
13.204357385635376	1658
13.20940089225769	1593
13.214473724365234	1656
13.219464540481567	1672
13.224415302276611	1594
13.229445934295654	1625
13.234478235244751	1677
13.23948073387146	1605
13.244431734085083	1481
13.249566555023193	1311
13.25454330444336	1004
13.259662866592407	779
13.264544248580933	888
13.269397974014282	945
13.27425217628479	722
13.27925705909729	827
13.284074306488037	1543
13.289078950881958	2281
13.294097661972046	2547
13.299183368682861	2082
13.304179430007935	1597
13.309202909469604	1522
13.31415605545044	1653
13.319133520126343	1653
13.32414960861206	1530
13.32918381690979	1558
13.334178924560547	1641
13.339215517044067	1580
13.344190120697021	1539
13.349204063415527	1603
13.354264736175537	1578
13.35932469367981	1511
13.364370822906494	1569
13.369401693344116	1586
13.37442922592163	1499
13.37940764427185	1520
13.384406089782715	1579
13.389374017715454	1511
13.394403219223022	1481
13.399496078491211	1546
13.404540061950684	1507
13.409591436386108	1442
13.414532899856567	1503
13.419555902481079	1519
13.424590826034546	1429
13.42953610420227	1454
13.434523105621338	1504
13.43952488899231	1427
13.444531679153442	1400
13.449599027633667	1469
13.454529047012329	1433
13.459625244140625	1364
13.464555025100708	1422
13.469599485397339	1434
13.474628925323486	1354
13.479626893997192	1389
13.484698057174683	1447
13.489746809005737	1382
13.494751453399658	1375
13.49964451789856	1457
13.504642248153687	1437
13.50960659980774	1398
13.514631509780884	1481
13.519657135009766	1512
13.52466869354248	1450
13.529679536819458	1515
13.534680366516113	1613
13.539699792861938	1577
13.54477858543396	1598
13.54973316192627	1705
13.554660081863403	1697
13.559606313705444	1663
13.56468152999878	1750
13.56969928741455	1781
13.57471776008606	1708
13.579765558242798	1751
13.584675312042236	1811
13.589624881744385	1747
13.594662427902222	1737
13.599677801132202	1812
13.604654312133789	1772
13.609699487686157	1708
13.614730834960938	1781
13.619704723358154	1798
13.62467622756958	1710
13.629694700241089	1743
13.634697675704956	1798
13.639714479446411	1725
13.6447172164917	1709
13.649712800979614	1784
13.654715776443481	1749
13.659652948379517	1688
13.664678573608398	1756
13.669651508331299	1779
13.674738883972168	1687
13.67973279953003	1724
13.684638977050781	1779
13.689574241638184	1712
13.694594860076904	1697
13.699512958526611	1776
13.704515933990479	1750
13.709469079971313	1689
13.714488983154297	1752
13.719573259353638	1772
13.724546194076538	1692
13.729536771774292	1722
13.734548091888428	1784
13.739625692367554	1720
13.744652032852173	1705
13.749600648880005	1782
13.754634380340576	1749
13.759602785110474	1689
13.764573812484741	1753
13.769598722457886	1770
13.77460503578186	1691
13.779530048370361	1722
13.78453803062439	1785
13.789538860321045	1724
13.794535875320435	1708
13.799610376358032	1786
13.804567575454712	1758
13.809504747390747	1692
13.814426183700562	1760
13.819453001022339	1788
13.824454307556152	1717
13.82945442199707	1751
13.834470272064209	1810
13.839354991912842	1757
13.844335317611694	1733
13.849378824234009	1808
13.854403972625732	1780
13.859479427337646	1693
13.864424705505371	1718
13.869353771209717	1739
13.874403953552246	1669
13.879386901855469	1703
13.884332656860352	1771
13.889342069625854	1708
13.89438772201538	1673
13.899439811706543	1747
13.904434204101562	1720
13.909401655197144	1643
13.91433572769165	1699
13.919389963150024	1724
13.924413442611694	1644
13.929408311843872	1667
13.934400796890259	1733
13.939382076263428	1661
13.944413661956787	1613
13.949407815933228	1634
13.954522609710693	1403
13.959553003311157	1090
13.964533805847168	922
13.96947455406189	888
13.974398612976074	888
13.979300737380981	898
13.984222888946533	884
13.9890718460083	1225
13.994035959243774	2016
13.99908185005188	2746
14.00408411026001	2402
14.00905990600586	1674
14.014041185379028	1586
14.019043684005737	1760
14.024034261703491	1680
14.029085397720337	1606
14.034057378768921	1648
14.0390784740448	1616
14.044222116470337	1594
14.049230575561523	1656
14.054214239120483	1624
14.05916714668274	1556
14.064255475997925	1615
14.06926703453064	1642
14.074286460876465	1557
14.079369306564331	1567
14.084323167800903	1628
14.089302778244019	1564
14.094229459762573	1523
14.099287033081055	1593
14.10426139831543	1571
14.109286785125732	1496
14.114237070083618	1547
14.11925196647644	1565
14.124254703521729	1476
14.129234552383423	1490
14.134283781051636	1554
14.139314413070679	1485
14.144308090209961	1440
14.149284839630127	1498
14.154279947280884	1468
14.159233570098877	1393
14.16420865058899	1442
14.169244766235352	1465
14.174338102340698	1381
14.179316282272339	1398
14.184202671051025	1467
14.189155340194702	1413
14.194109201431274	1374
14.199140310287476	1449
14.204172849655151	1450
14.209195137023926	1388
14.214163541793823	1453
14.219210386276245	1497
14.22430419921875	1429
14.229244232177734	1469
14.234249591827393	1577
14.239245653152466	1554
14.24412989616394	1548
14.249161005020142	1659
14.2541344165802	1680
14.259199619293213	1635
14.264280080795288	1714
14.269253492355347	1771
14.274193286895752	1707
14.279202699661255	1725
14.284167766571045	1800
14.289159297943115	1751
14.294157266616821	1717
14.299138307571411	1798
14.304104328155518	1790
14.30907940864563	1706
14.314088582992554	1755
14.319141864776611	1795
14.324147939682007	1721
14.32913851737976	1731
14.334132432937622	1789
14.339194774627686	1728
14.34409761428833	1693
14.34915828704834	1775
14.35411548614502	1763
14.35908031463623	1682
14.364005088806152	1731
14.369085788726807	1774
14.374090194702148	1698
14.379014492034912	1702
14.383954524993896	1770
14.389114141464233	1714
14.394114971160889	1674
14.399052858352661	1748
14.404032230377197	1744
14.409135818481445	1675
14.414085149765015	1724
14.419152021408081	1757
14.424120664596558	1681
14.429104328155518	1699
14.434187889099121	1767
14.439182043075562	1709
14.444209098815918	1674
14.44927453994751	1746
14.454246759414673	1731
14.459291219711304	1658
14.464185953140259	1711
14.469187021255493	1744
14.47416615486145	1666
14.47914171218872	1680
14.484262228012085	1754
14.489235162734985	1705
14.494253873825073	1668
14.499274253845215	1742
14.504278182983398	1724
14.509297370910645	1648
14.514280319213867	1703
14.519256114959717	1741
14.524184465408325	1673
14.52918529510498	1699
14.534159421920776	1773
14.539166450500488	1720
14.544214010238647	1678
14.549262285232544	1748
14.554274797439575	1741
14.55929970741272	1669
14.564259052276611	1702
14.569237470626831	1703
14.574263095855713	1606
14.579233884811401	1628
14.58415412902832	1708
14.589133977890015	1660
14.594112396240234	1622
14.599113702774048	1687
14.604203939437866	1669
14.609183073043823	1595
14.614163398742676	1645
14.619134664535522	1675
14.624139070510864	1590
14.629167079925537	1602
14.634182214736938	1666
14.639183521270752	1611
14.644058227539062	1568
14.649088859558105	1629
14.654061317443848	1589
14.659108638763428	1341
14.664098501205444	1155
14.669055700302124	967
14.674025774002075	793
14.678900957107544	849
14.683752536773682	921
14.688724279403687	756
14.693587064743042	970
14.69843077659607	1788
14.703534603118896	2567
14.708560228347778	2371
14.713489294052124	1738
14.718486547470093	1515
14.723519563674927	1546
14.72861099243164	1592
14.733560562133789	1612
14.738508939743042	1536
14.743487119674683	1493
14.748462200164795	1570
14.753436803817749	1576
14.75843358039856	1484
14.76344633102417	1514
14.768461227416992	1563
14.77348518371582	1491
14.77846384048462	1477
14.783490657806396	1545
14.788533210754395	1500
14.793535232543945	1443
14.798433780670166	1503
14.803506135940552	1507
14.80851697921753	1419
14.81353759765625	1454
14.818539142608643	1503
14.823614358901978	1427
14.82861328125	1409
14.833656311035156	1475
14.838634967803955	1427
14.843614339828491	1363
14.848573923110962	1420
14.853597164154053	1419
14.85853624343872	1331
14.863542556762695	1360
14.868568181991577	1409
14.873537540435791	1326
14.878551721572876	1308
14.883522987365723	1379
14.888521671295166	1343
14.893477439880371	1288
14.898565530776978	1358
14.903560876846313	1374
14.908586740493774	1298
14.913561820983887	1341
14.918566942214966	1405
14.923610210418701	1350
14.92861533164978	1352
14.933546304702759	1451
14.938532829284668	1451
14.943589925765991	1429
14.948574542999268	1539
14.953532695770264	1589
14.958529710769653	1542
14.96351408958435	1608
14.968545198440552	1685
14.973533153533936	1636
14.978569030761719	1644
14.983628749847412	1725
14.988651275634766	1695
14.993623971939087	1652
14.998641967773438	1721
15.003565788269043	1738
15.008554220199585	1659
15.013584613800049	1695
15.018542766571045	1739
15.02356481552124	1664
15.028592586517334	1650
15.033627271652222	1724
15.038565874099731	1686
15.043656349182129	1637
15.048604011535645	1702
15.0536527633667	1699
15.05866813659668	1610
15.063685417175293	1650
15.068709135055542	1703
15.073711156845093	1636
15.078723907470703	1622
15.083686828613281	1695
15.088609457015991	1660
15.093656778335571	1609
15.098673820495605	1676
15.103630065917969	1680
15.108603477478027	1603
15.113607168197632	1643
15.11863374710083	1695
15.123655557632446	1622
15.128654479980469	1611
15.133615970611572	1689
15.138559579849243	1656
15.143541812896729	1603
15.14858603477478	1671
15.153651237487793	1682
15.158626079559326	1604
15.163590669631958	1645
15.168541431427002	1699
15.173457145690918	1629
15.178497552871704	1617
15.183525800704956	1692
15.188518047332764	1654
15.193450927734375	1600
15.198559284210205	1668
15.20362401008606	1682
15.208545923233032	1606
15.21355390548706	1641
15.218627214431763	1702
15.223644733428955	1635
15.228708267211914	1625
15.233713865280151	1696
15.238693714141846	1665
15.24385952949524	1621
15.248798370361328	1697
15.253742218017578	1706
15.258704423904419	1632
15.263724565505981	1681
15.268674612045288	1730
15.27369499206543	1650
15.278802633285522	1636
15.283806324005127	1693
15.288740158081055	1624
15.293685674667358	1553
15.298727750778198	1635
15.303761959075928	1656
15.308729410171509	1579
15.313734531402588	1619
15.318840026855469	1665
15.323917150497437	1585
15.328763723373413	1577
15.333864450454712	1644
15.338812589645386	1597
15.343935012817383	1543
15.348808288574219	1610
15.353787660598755	1622
15.358814239501953	1542
15.363888502120972	1578
15.368886947631836	1611
15.37395191192627	1504
15.378965854644775	1322
15.383966207504272	1144
15.38896369934082	849
15.393860816955566	715
15.398860692977905	884
15.40373158454895	908
15.408654689788818	719
15.413488149642944	1048
15.418462038040161	1836
15.423459529876709	2458
15.42844295501709	2319
15.433440923690796	1765
15.438461303710938	1466
15.443428039550781	1473
15.448331594467163	1589
15.45335578918457	1576
15.458405494689941	1468
15.463423728942871	1508
15.468447208404541	1578
15.473361015319824	1505
15.478391647338867	1477
15.4833664894104	1546
15.48836350440979	1509
15.493489742279053	1444
15.498488426208496	1501
15.503505229949951	1513
15.508554220199585	1426
15.513548135757446	1458
15.518494129180908	1512
15.523462057113647	1435
15.528457164764404	1405
15.533430576324463	1474
15.53843355178833	1444
15.543461799621582	1375
15.548413038253784	1434
15.553412675857544	1454
15.558414459228516	1364
15.563400030136108	1380
15.568416833877563	1431
15.573415040969849	1356
15.578346014022827	1328
15.58341360092163	1393
15.588569402694702	1349
15.59354305267334	1278
15.598525762557983	1335
15.603560209274292	1355
15.608550786972046	1271
15.613550662994385	1301
15.618630647659302	1367
15.623549222946167	1303
15.628661870956421	1291
15.6335928440094	1372
15.638536930084229	1351
15.643518209457397	1300
15.648550987243652	1384
15.653612852096558	1428
15.658618450164795	1386
15.66365647315979	1458
15.66869330406189	1549
15.673656463623047	1521
15.678650617599487	1540
15.683627605438232	1644
15.688620328903198	1638
15.693588018417358	1605
15.69884729385376	1689
15.70386266708374	1707
15.708841800689697	1641
15.713878393173218	1692
15.718899011611938	1748
15.723893165588379	1671
15.728930473327637	1659
15.733965873718262	1737
15.738945007324219	1700
15.743988990783691	1641
15.748998165130615	1705
15.753958225250244	1711
15.758960008621216	1633
15.76400375366211	1678
15.769031524658203	1719
15.7741060256958	1631
15.779173612594604	1631
15.784185409545898	1705
15.789111137390137	1660
15.79406213760376	1612
15.799084901809692	1678
15.804074048995972	1680
15.809058666229248	1605
15.81409239768982	1653
15.819133758544922	1699
15.823997259140015	1621
15.829031467437744	1620
15.834034442901611	1701
15.839089155197144	1657
15.844117879867554	1614
15.849071502685547	1681
15.854023694992065	1686
15.858973503112793	1613
15.864017009735107	1657
15.868934154510498	1703
15.873973846435547	1630
15.879064559936523	1629
15.884076356887817	1706
15.889020681381226	1660
15.893978118896484	1608
15.898972511291504	1680
15.90396761894226	1685
15.909069299697876	1608
15.913986444473267	1652
15.91896367073059	1698
15.923985719680786	1624
15.929094791412354	1618
15.934094190597534	1688
15.939089059829712	1646
15.944124937057495	1600
15.949071884155273	1674
15.954010486602783	1683
15.959034442901611	1604
15.964061498641968	1643
15.969023704528809	1689
15.97402024269104	1619
15.979074954986572	1615
15.984041690826416	1685
15.989060163497925	1641
15.994136095046997	1594
15.999102115631104	1662
16.004109621047974	1671
16.00906467437744	1596
16.01415181159973	1649
16.01913833618164	1699
16.02414631843567	1627
16.029186248779297	1620
16.034158945083618	1688
16.0389986038208	1645
16.043920755386353	1594
16.049001216888428	1643
16.053956508636475	1637
16.05900001525879	1551
16.063958168029785	1601
16.068950176239014	1655
16.074025630950928	1584
16.079045295715332	1588
16.084046840667725	1665
16.08914351463318	1614
16.09410524368286	1559
16.09896469116211	1629
16.10398578643799	1632
16.108965396881104	1557
16.113970041275024	1596
16.119059324264526	1635
16.12408137321472	1563
16.129169464111328	1563
16.134172677993774	1630
16.139124393463135	1575
16.14416742324829	1443
16.149154663085938	1291
16.154176473617554	1018
16.15921401977539	727
16.16416621208191	781
16.169123888015747	939
16.1739399433136	790
16.178905487060547	766
16.183797121047974	1352
16.18873405456543	2061
16.193664073944092	2482
16.198697805404663	2180
16.203714847564697	1654
16.20870304107666	1456
16.213697910308838	1564
16.218754053115845	1630
16.223735094070435	1522
16.2287118434906	1491
16.233683347702026	1578
16.23876953125	1552
16.243918418884277	1489
16.248852491378784	1546
16.253822565078735	1554
16.258766174316406	1471
16.263789892196655	1500
16.268839836120605	1554
16.27378821372986	1483
16.278897523880005	1461
16.283785343170166	1529
16.28880476951599	1492
16.29386568069458	1424
16.2989182472229	1489
16.304034948349	1496
16.30907702445984	1403
16.314059019088745	1435
16.319060564041138	1480
16.32405948638916	1401
16.329151391983032	1383
16.334147214889526	1449
16.33913826942444	1404
16.34417700767517	1342
16.349194288253784	1398
16.354193925857544	1392
16.359162092208862	1307
16.364160537719727	1341
16.369210720062256	1383
16.374186038970947	1305
16.3791720867157	1299
16.384145498275757	1379
16.389198064804077	1338
16.394240856170654	1292
16.399317026138306	1370
16.404197692871094	1387
16.40914487838745	1322
16.414143800735474	1378
16.419219255447388	1449
16.424266576766968	1404
16.429221391677856	1434
16.43425941467285	1549
16.43920397758484	1546
16.444194793701172	1527
16.449196577072144	1625
16.454246044158936	1661
16.459239721298218	1607
16.464280128479004	1666
16.469228506088257	1726
16.474239349365234	1662
16.479246377944946	1666
16.484219789505005	1749
16.489272594451904	1708
16.49431562423706	1661
16.499375581741333	1731
16.50434899330139	1736
16.50934863090515	1654
16.514347314834595	1696
16.51929473876953	1744
16.524373531341553	1667
16.529294967651367	1666
16.53429889678955	1733
16.53925323486328	1685
16.544201374053955	1637
16.549198150634766	1706
16.554274797439575	1709
16.559370279312134	1630
16.564454317092896	1680
16.569485664367676	1726
16.574605464935303	1649
16.579595804214478	1651
16.58469867706299	1723
16.5895836353302	1674
16.594518899917603	1634
16.59954333305359	1710
16.60453224182129	1708
16.609586715698242	1632
16.614619731903076	1682
16.619583129882812	1723
16.624650239944458	1649
16.629732131958008	1665
16.634738206863403	1736
16.639776468276978	1684
16.644837856292725	1649
16.649834632873535	1725
16.654751300811768	1718
16.65970754623413	1646
16.664768934249878	1702
16.669721126556396	1742
16.674724817276	1661
16.67971110343933	1671
16.68472456932068	1739
16.689662218093872	1691
16.6946063041687	1648
16.699621200561523	1723
16.70450758934021	1726
16.709543704986572	1651
16.714534044265747	1695
16.719511032104492	1736
16.724514722824097	1657
16.72956609725952	1659
16.73463010787964	1733
16.739609718322754	1687
16.74463725090027	1642
16.749680757522583	1715
16.754753589630127	1706
16.75982666015625	1637
16.764813899993896	1694
16.76973557472229	1731
16.77478003501892	1652
16.779812812805176	1668
16.784836053848267	1736
16.789941787719727	1681
16.79499650001526	1653
16.80001211166382	1738
16.80504870414734	1728
16.809988975524902	1661
16.815049171447754	1705
16.820045948028564	1733
16.825021505355835	1656
16.829997062683105	1677
16.83491587638855	1721
16.83991312980652	1639
16.84517002105713	1604
16.850171089172363	1693
16.855194091796875	1682
16.860177755355835	1616
16.86520028114319	1676
16.870189905166626	1711
16.87524938583374	1628
16.880248308181763	1649
16.88524627685547	1708
16.890196323394775	1645
16.895270109176636	1618
16.900268077850342	1690
16.905288457870483	1662
16.91024160385132	1597
16.915271997451782	1662
16.92031955718994	1681
16.92538547515869	1588
16.93044376373291	1576
16.93543839454651	1449
16.940455675125122	1112
16.945420265197754	833
16.950297355651855	858
16.95513892173767	934
16.959981441497803	837
16.96488094329834	793
16.969834327697754	1193
16.974842071533203	1864
16.979870557785034	2529
16.984863758087158	2445
16.98993468284607	1777
16.99493956565857	1509
17.000000476837158	1663
17.005008697509766	1671
17.009954690933228	1552
17.01492214202881	1582
17.019933938980103	1634
17.024903059005737	1568
17.029945373535156	1574
17.034955263137817	1628
17.039926528930664	1566
17.04503560066223	1525
17.050007820129395	1597
17.055055379867554	1579
17.060054302215576	1505
17.06504225730896	1559
17.07011342048645	1587
17.07508111000061	1493
17.080134630203247	1504
17.085150957107544	1570
17.0902042388916	1496
17.095297813415527	1462
17.100295066833496	1537
17.105292081832886	1510
17.110352039337158	1431
17.11531662940979	1485
17.120347023010254	1505
17.125370502471924	1421
17.130422115325928	1440
17.135425329208374	1489
17.140480756759644	1413
17.145484447479248	1380
17.15051245689392	1454
17.15559482574463	1425
17.160494804382324	1355
17.16559863090515	1419
17.170652627944946	1446
17.175689458847046	1370
17.18067979812622	1405
17.185633182525635	1473
17.190670251846313	1413
17.19566822052002	1398
17.200624465942383	1490
17.205688953399658	1484
17.210709810256958	1456
17.21578621864319	1552
17.22078013420105	1595
17.22583270072937	1550
17.230854988098145	1622
17.23579478263855	1707
17.240774393081665	1667
17.24588131904602	1679
17.250945568084717	1775
17.255913734436035	1755
17.260855674743652	1709
17.26596188545227	1782
17.270931720733643	1802
17.275923490524292	1734
17.28090739250183	1773
17.286075353622437	1823
17.291078090667725	1746
17.29607582092285	1744
17.3009672164917	1823
17.305988073349	1782
17.31100058555603	1720
17.31612515449524	1787
17.32117486000061	1792
17.32617950439453	1714
17.33120608329773	1757
17.336217880249023	1798
17.34124445915222	1722
17.346251726150513	1721
17.351275205612183	1789
17.356478929519653	1742
17.361513376235962	1703
17.366463899612427	1775
17.37143301963806	1773
17.376408100128174	1695
17.381399393081665	1747
17.386361598968506	1788
17.39146399497986	1707
17.396461486816406	1707
17.40136694908142	1779
17.40636706352234	1734
17.41132116317749	1689
17.416297435760498	1768
17.421377897262573	1773
17.42645764350891	1696
17.43145179748535	1742
17.436472415924072	1785
17.44145655632019	1712
17.446471691131592	1719
17.45148491859436	1791
17.456456422805786	1739
17.46148180961609	1692
17.46642518043518	1765
17.471425533294678	1763
17.476496934890747	1689
17.48155188560486	1741
17.48658061027527	1784
17.49156379699707	1707
17.49645209312439	1707
17.501429080963135	1773
17.506458520889282	1724
17.51158046722412	1678
17.516489505767822	1752
17.521584510803223	1750
17.52653455734253	1676
17.53157687187195	1719
17.536497116088867	1770
17.5414822101593	1694
17.54650378227234	1695
17.551534414291382	1772
17.556537628173828	1725
17.561546802520752	1686
17.566579580307007	1758
17.571693181991577	1757
17.57675266265869	1682
17.5818030834198	1734
17.58679747581482	1772
17.59172248840332	1696
17.596747875213623	1684
17.601738452911377	1726
17.606688737869263	1668
17.61168336868286	1637
17.616668939590454	1721
17.621720552444458	1712
17.626708507537842	1637
17.63164186477661	1694
17.63673734664917	1730
17.64167857170105	1642
17.646904230117798	1648
17.651822328567505	1710
17.65689492225647	1651
17.66194176673889	1615
17.666905641555786	1682
17.671886205673218	1670
17.67694926261902	1605
17.681999444961548	1658
17.686981678009033	1673
17.69199776649475	1551
17.697028875350952	1379
17.70204734802246	1193
17.707008123397827	893
17.71186590194702	770
17.71679162979126	905
17.72169041633606	900
17.726652145385742	726
17.731576204299927	1120
17.736519813537598	1976
17.741593599319458	2598
17.74659824371338	2383
17.751577854156494	1814
17.756581783294678	1554
17.76160740852356	1624
17.76665210723877	1700
17.771625757217407	1612
17.776606559753418	1502
17.78168249130249	1573
17.786659955978394	1628
17.791627645492554	1539
17.796666622161865	1530
17.80171275138855	1603
17.806691884994507	1552
17.811635732650757	1503
17.81667137145996	1565
17.821632146835327	1551
17.826637029647827	1474
17.83157515525818	1523
17.836548805236816	1557
17.841552734375	1473
17.84662413597107	1470
17.85157346725464	1528
17.85652756690979	1472
17.861515522003174	1422
17.86647868156433	1480
17.871448516845703	1475
17.876545906066895	1391
17.88154935836792	1432
17.886611461639404	1468
17.89160418510437	1379
17.896671056747437	1374
17.90168333053589	1435
17.906678915023804	1373
17.91167187690735	1322
17.916654348373413	1393
17.92168664932251	1383
17.926700353622437	1299
17.93168878555298	1344
17.936716556549072	1397
17.941704034805298	1331
17.946723461151123	1339
17.95171284675598	1413
17.956676721572876	1366
17.961698532104492	1337
17.96673274040222	1434
17.971773147583008	1456
17.97679376602173	1410
17.98178267478943	1492
17.986799955368042	1570
17.991788148880005	1528
17.99682307243347	1569
18.001821279525757	1672
18.006757259368896	1651
18.011820554733276	1630
18.01671290397644	1712
18.021713495254517	1722
18.02677083015442	1666
18.03187918663025	1728
18.03684091567993	1766
18.041943550109863	1685
18.04684567451477	1695
18.051844835281372	1767
18.05684518814087	1713
18.06187868118286	1668
18.06685709953308	1738
18.071874856948853	1724
18.07688856124878	1652
18.081928253173828	1709
18.087027311325073	1751
18.092002868652344	1663
18.09700584411621	1670
18.102017641067505	1733
18.10695242881775	1676
18.111921787261963	1636
18.116925954818726	1711
18.121898412704468	1700
18.1268470287323	1622
18.131775617599487	1668
18.136770009994507	1704
18.14177131652832	1626
18.14684772491455	1637
18.151862621307373	1712
18.156938791275024	1662
18.161911725997925	1618
18.166865825653076	1690
18.17178249359131	1683
18.17674970626831	1609
18.181885719299316	1665
18.186851978302002	1710
18.191964149475098	1633
18.196963787078857	1639
18.201985836029053	1704
18.206932544708252	1652
18.21194100379944	1610
18.216931581497192	1698
18.22197437286377	1689
18.226943254470825	1616
18.231929063796997	1669
18.23692488670349	1706
18.241925477981567	1622
18.246912240982056	1636
18.251885652542114	1709
18.256962299346924	1660
18.261834621429443	1617
18.266698122024536	1684
18.271721124649048	1678
18.276705741882324	1603
18.28166961669922	1659
18.286715984344482	1712
18.291701316833496	1633
18.296740770339966	1634
18.301857948303223	1709
18.306830406188965	1662
18.311802625656128	1629
18.316786289215088	1712
18.32175636291504	1706
18.32672691345215	1636
18.331780910491943	1686
18.33677315711975	1731
18.341774940490723	1650
18.34670639038086	1635
18.35185933113098	1668
18.356857776641846	1603
18.361783266067505	1575
18.366780519485474	1658
18.37195062637329	1650
18.377087354660034	1577
18.38216757774353	1629
18.387168169021606	1654
18.392147064208984	1568
18.39716649055481	1583
18.402159690856934	1646
18.407213926315308	1580
18.412180185317993	1545
18.417174816131592	1622
18.422088623046875	1612
18.426999807357788	1540
18.432058095932007	1580
18.43700909614563	1598
18.44205641746521	1370
18.447033166885376	1149
18.451904773712158	975
18.45686936378479	765
18.461798667907715	741
18.466641187667847	880
18.47164034843445	783
18.476487159729004	832
18.481383800506592	1532
18.486369371414185	2403
18.491376399993896	2482
18.49642539024353	1845
18.50141477584839	1525
18.5063579082489	1545
18.511373043060303	1558
18.516414165496826	1571
18.521425485610962	1526
18.526405572891235	1453
18.531420469284058	1514
18.536335468292236	1570
18.54128861427307	1482
18.546236038208008	1460
18.551250457763672	1533
18.556294441223145	1499
18.561293840408325	1436
18.56628918647766	1496
18.57128643989563	1509
18.57620072364807	1428
18.581258058547974	1451
18.58627438545227	1498
18.591278314590454	1425
18.59620714187622	1405
18.601235151290894	1474
18.606276988983154	1432
18.61126160621643	1369
18.61628293991089	1427
18.621373176574707	1432
18.626412630081177	1345
18.631470680236816	1372
18.63639497756958	1417
18.641366243362427	1335
18.646287441253662	1310
18.651289463043213	1377
18.656299352645874	1328
18.661271572113037	1264
18.66621494293213	1321
18.67120122909546	1336
18.67617130279541	1255
18.681163549423218	1287
18.686100959777832	1352
18.69115138053894	1289
18.696184635162354	1277
18.701188325881958	1363
18.706189155578613	1345
18.71126651763916	1300
18.71624732017517	1389
18.72121548652649	1444
18.72627019882202	1400
18.731213808059692	1475
18.736207723617554	1573
18.74132227897644	1544
18.746355533599854	1563
18.751303672790527	1667
18.756275177001953	1652
18.761190176010132	1610
18.766228675842285	1694
18.77133011817932	1719
18.776312828063965	1643
18.781310319900513	1683
18.78627061843872	1740
18.791273832321167	1669
18.79620671272278	1655
18.80121159553528	1737
18.806241989135742	1704
18.811195611953735	1643
18.816264152526855	1708
18.82125163078308	1725
18.826251745224	1636
18.83126449584961	1670
18.836299180984497	1721
18.841317176818848	1649
18.846368551254272	1636
18.851343393325806	1708
18.856353759765625	1668
18.86130666732788	1607
18.866332054138184	1674
18.871362924575806	1691
18.876331567764282	1611
18.881322383880615	1646
18.88628649711609	1701
18.891188144683838	1630
18.89624285697937	1610
18.9012234210968	1686
18.906216859817505	1660
18.911327600479126	1602
18.916393756866455	1667
18.921375036239624	1685
18.926401376724243	1609
18.9313383102417	1649
18.936305284500122	1705
18.941304445266724	1631
18.946306943893433	1621
18.95132565498352	1700
18.956342220306396	1662
18.961512327194214	1603
18.96654462814331	1679
18.971490621566772	1698
18.97651171684265	1615
18.98155665397644	1649
18.98654317855835	1705
18.991503477096558	1639
18.9964816570282	1624
19.001529455184937	1698
19.00654625892639	1664
19.011500358581543	1612
19.016541242599487	1678
19.021554946899414	1686
19.02652668952942	1604
19.031536102294922	1646
19.036592960357666	1703
19.041593074798584	1629
19.046594619750977	1615
19.051583766937256	1687
19.056612968444824	1651
19.061616897583008	1596
19.06652593612671	1665
19.071474313735962	1680
19.076478719711304	1600
19.08153223991394	1639
19.086527824401855	1692
19.091552734375	1616
19.09655213356018	1598
19.101622343063354	1675
19.10660696029663	1646
19.111599683761597	1596
19.116536855697632	1662
19.121584177017212	1674
19.126649141311646	1600
19.131627082824707	1647
19.136603116989136	1700
19.141603231430054	1629
19.14662194252014	1622
19.1515371799469	1687
19.156538486480713	1645
19.161563396453857	1588
19.16659379005432	1638
19.171529293060303	1639
19.176530599594116	1560
19.18159508705139	1605
19.186569690704346	1658
19.19156312942505	1584
19.196511030197144	1579
19.201489448547363	1660
19.20654034614563	1617
19.211609840393066	1550
19.216721057891846	1617
19.221704244613647	1627
19.226714611053467	1545
19.231889724731445	1590
19.236977577209473	1640
19.24198293685913	1562
19.246989965438843	1562
19.2520170211792	1629
19.25699234008789	1580
19.262023210525513	1477
19.26707148551941	1327
19.272061824798584	1045
19.27701425552368	731
19.281940698623657	754
19.28678584098816	920
19.29165506362915	792
19.296578884124756	707
19.301530599594116	1222
19.30652141571045	1941
19.311403512954712	2464
19.31635093688965	2273
19.321351528167725	1700
19.326281547546387	1440
19.331297636032104	1550
19.33633065223694	1636
19.341297149658203	1529
19.34632182121277	1491
19.351292848587036	1577
19.356269359588623	1558
19.361239433288574	1489
19.36626148223877	1550
19.371293544769287	1566
19.376378059387207	1479
19.381338596343994	1502
19.386338472366333	1560
19.391335487365723	1492
19.396299123764038	1464
19.40120530128479	1531
19.40620470046997	1502
19.411255359649658	1436
19.416316032409668	1494
19.421314477920532	1508
19.426374197006226	1417
19.431321620941162	1437
19.436339616775513	1491
19.441370010375977	1417
19.446330308914185	1389
19.451308965682983	1455
19.45645809173584	1417
19.46143913269043	1350
19.466392278671265	1404
19.471311569213867	1412
19.476335048675537	1313
19.48133873939514	1333
19.48628878593445	1389
19.491361618041992	1319
19.496336221694946	1281
19.501389026641846	1358
19.506381511688232	1336
19.511316299438477	1278
19.516390085220337	1349
19.52138090133667	1378
19.52634286880493	1305
19.531333684921265	1346
19.53638005256653	1429
19.541364431381226	1391
19.546366691589355	1406
19.551428079605103	1522
19.55642318725586	1538
19.561426401138306	1517
19.56649351119995	1622
19.57149577140808	1673
19.576418161392212	1622
19.581520080566406	1671
19.586418628692627	1747
19.591338634490967	1694
19.596381664276123	1678
19.60141396522522	1759
19.606456518173218	1741
19.611510038375854	1685
19.616454362869263	1747
19.62144708633423	1766
19.626470804214478	1690
19.631542682647705	1726
19.636557579040527	1781
19.641550064086914	1707
19.646559715270996	1688
19.651678562164307	1760
19.656705617904663	1726
19.66171669960022	1668
19.666651248931885	1726
19.67164421081543	1735
19.676704168319702	1662
19.6817729473114	1700
19.686712741851807	1747
19.69183039665222	1676
19.696768045425415	1668
19.70176410675049	1739
19.70677900314331	1696
19.71175456047058	1647
19.716917276382446	1715
19.721861124038696	1723
19.726969480514526	1645
19.731868982315063	1690
19.736772775650024	1741
19.741838455200195	1667
19.746806621551514	1664
19.751717805862427	1743
19.756851196289062	1700
19.76177430152893	1645
19.76681113243103	1714
19.771793127059937	1723
19.776798725128174	1644
19.78179955482483	1686
19.786769151687622	1744
19.791802406311035	1676
19.79685139656067	1667
19.801968336105347	1740
19.806936264038086	1702
19.81178879737854	1651
19.81678795814514	1717
19.821815967559814	1730
19.826854467391968	1646
19.8319149017334	1686
19.836939811706543	1737
19.842005491256714	1664
19.846923112869263	1664
19.85189414024353	1742
19.857014894485474	1695
19.862056255340576	1640
19.86704921722412	1714
19.872066020965576	1717
19.877052307128906	1636
19.882043600082397	1683
19.887043237686157	1733
19.892159461975098	1658
19.89718770980835	1653
19.902263164520264	1727
19.90726947784424	1683
19.91219425201416	1632
19.91735816001892	1700
19.922377586364746	1695
19.92749333381653	1621
19.93245005607605	1679
19.93747305870056	1717
19.94240427017212	1636
19.94734787940979	1644
19.952370643615723	1708
19.95749044418335	1656
19.96256184577942	1616
19.96750283241272	1688
19.972556352615356	1676
19.977523803710938	1606
19.98255467414856	1660
19.98762607574463	1695
19.992626667022705	1616
19.997618436813354	1628
20.002695083618164	1699
20.00778365135193	1642
20.012777090072632	1607
20.017796754837036	1683
20.02280330657959	1670
20.027641773223877	1596
20.03269052505493	1651
20.037816524505615	1679
20.042720317840576	1604
20.047717332839966	1622
20.052757501602173	1690
20.05766749382019	1632
20.06269931793213	1597
20.06763744354248	1667
20.07266116142273	1653
20.077606916427612	1583
20.08267092704773	1637
20.08765959739685	1672
20.092585802078247	1601
20.09759545326233	1614
20.1026291847229	1681
20.107571840286255	1630
20.1126229763031	1595
20.11759877204895	1676
20.12256932258606	1671
20.127495765686035	1590
20.132542610168457	1646
20.13751983642578	1688
20.14254069328308	1610
20.147541046142578	1595
20.152507781982422	1650
20.15740966796875	1595
20.16241955757141	1561
20.167380571365356	1640
20.172407150268555	1643
20.177387475967407	1572
20.182334661483765	1623
20.187310457229614	1662
20.192262411117554	1584
20.197346448898315	1583
20.202330827713013	1657
20.207282543182373	1604
20.2122905254364	1549
20.21724009513855	1619
20.22224187850952	1629
20.22729468345642	1552
20.23230504989624	1597
20.237309455871582	1635
20.242285013198853	1504
20.247323513031006	1284
20.252296686172485	1081
20.257320404052734	793
20.26226019859314	712
20.267257690429688	856
20.272083044052124	791
20.27701187133789	603
20.281926155090332	1042
20.28696298599243	1900
20.292056560516357	2477
20.297029972076416	2242
20.30205798149109	1730
20.307076692581177	1516
20.3121120929718	1548
20.31710386276245	1630
20.322043657302856	1594
20.327043294906616	1494
20.332013368606567	1547
20.33712410926819	1609
20.34209394454956	1527
20.347049236297607	1507
20.352074146270752	1575
20.357049465179443	1539
20.362024068832397	1485
20.367175817489624	1547
20.372171640396118	1552
20.37705397605896	1473
20.38215184211731	1508
20.387197017669678	1549
20.39218258857727	1468
20.397157430648804	1457
20.402154207229614	1527
20.40715527534485	1479
20.41212773323059	1419
20.417085647583008	1482
20.42215919494629	1487
20.4270920753479	1398
20.432124614715576	1424
20.437124013900757	1472
20.44217014312744	1398
20.44725203514099	1380
20.45224142074585	1438
20.457212209701538	1386
20.462199449539185	1322
20.467198610305786	1387
20.472196340560913	1390
20.477233171463013	1305
20.482240915298462	1341
20.487281799316406	1393
20.492249488830566	1322
20.497236490249634	1319
20.502256393432617	1399
20.507232427597046	1368
20.51225733757019	1324
20.517281770706177	1413
20.522258043289185	1441
20.52726435661316	1390
20.53221607208252	1465
20.537292003631592	1557
20.54228973388672	1526
20.547274589538574	1560
20.552287817001343	1667
20.557265996932983	1651
20.562299013137817	1627
20.567376136779785	1722
20.572344303131104	1741
20.57729148864746	1670
20.58236002922058	1718
20.587363243103027	1775
20.592414379119873	1706
20.59744882583618	1707
20.602354049682617	1782
20.607425451278687	1739
20.612342357635498	1692
20.617358207702637	1759
20.622381925582886	1763
20.627514839172363	1685
20.632484197616577	1725
20.63753652572632	1766
20.64260458946228	1694
20.647616863250732	1696
20.65254306793213	1762
20.657628536224365	1709
20.662635326385498	1664
20.667672872543335	1739
20.67272448539734	1734
20.677739143371582	1657
20.682735681533813	1708
20.687763929367065	1746
20.692920446395874	1669
20.697941064834595	1678
20.70284605026245	1742
20.70789909362793	1691
20.712813138961792	1653
20.71778631210327	1728
20.722883224487305	1721
20.72792363166809	1651
20.732839822769165	1705
20.73782968521118	1747
20.742812156677246	1675
20.747786045074463	1680
20.752755880355835	1749
20.757819414138794	1701
20.762924909591675	1668
20.767903804779053	1741
20.772961854934692	1731
20.77791452407837	1663
20.78294610977173	1717
20.787909984588623	1748
20.79296636581421	1671
20.797953367233276	1685
20.802881956100464	1754
20.807881355285645	1701
20.81287407875061	1667
20.817868947982788	1745
20.822938203811646	1736
20.8279230594635	1662
20.83288860321045	1712
20.837915420532227	1744
20.84298849105835	1666
20.84803056716919	1681
20.85314965248108	1753
20.858123779296875	1692
20.863088369369507	1654
20.868083000183105	1723
20.873138904571533	1711
20.878103017807007	1649
20.88308835029602	1705
20.888083934783936	1734
20.893110990524292	1654
20.898067235946655	1664
20.90311884880066	1731
20.908169746398926	1670
20.913174152374268	1639
20.91817879676819	1710
20.923183917999268	1695
20.928113222122192	1622
20.933114767074585	1678
20.938174962997437	1715
20.94311022758484	1639
20.948087692260742	1646
20.95304226875305	1705
20.958009481430054	1652
20.9629225730896	1614
20.96788263320923	1692
20.972975492477417	1685
20.977947473526	1613
20.98306179046631	1667
20.987959146499634	1700
20.992979764938354	1624
20.997947931289673	1638
21.002923488616943	1710
21.007944583892822	1658
21.012941122055054	1621
21.017948389053345	1687
21.022929906845093	1682
21.027756452560425	1605
21.03289222717285	1656
21.037938594818115	1681
21.042936086654663	1581
21.047913312911987	1586
21.052958011627197	1662
21.05797529220581	1612
21.062891721725464	1584
21.067891120910645	1662
21.07296657562256	1657
21.077980041503906	1576
21.083019256591797	1623
21.088040828704834	1655
21.093164682388306	1574
21.09824013710022	1586
21.1031596660614	1650
21.10810875892639	1596
21.113110780715942	1556
21.11809468269348	1627
21.12325382232666	1622
21.128235340118408	1543
21.133265018463135	1554
21.138282537460327	1388
21.143229961395264	1044
21.14819097518921	805
21.153111934661865	811
21.15808367729187	812
21.162989616394043	715
21.167901515960693	676
21.172767639160156	1041
21.17773413658142	1770
21.182692527770996	2521
21.18776845932007	2424
21.19273805618286	1724
21.197683095932007	1480
21.202701807022095	1648
21.20765209197998	1625
21.212637424468994	1506
21.21761178970337	1539
21.222665071487427	1558
21.22759222984314	1496
21.232587099075317	1537
21.237621784210205	1578
21.242537260055542	1498
21.247518062591553	1483
21.252522468566895	1549
21.257535696029663	1502
21.26251792907715	1446
21.26741886138916	1509
21.27239489555359	1511
21.277501344680786	1422
21.282485246658325	1456
21.28747797012329	1510
21.29244589805603	1434
21.297456979751587	1414
21.302433967590332	1476
21.30743408203125	1431
21.31239151954651	1368
21.317384243011475	1426
21.322412490844727	1431
21.327417850494385	1344
21.33249545097351	1368
21.337424993515015	1414
21.34243655204773	1334
21.347474575042725	1310
21.352439880371094	1377
21.357431411743164	1331
21.36237144470215	1262
21.367347478866577	1323
21.37239146232605	1342
21.37739634513855	1258
21.382397651672363	1296
21.387441158294678	1358
21.39241123199463	1298
21.39739441871643	1283
21.40239381790161	1368
21.407444715499878	1362
21.412418365478516	1326
21.417404413223267	1415
21.42247176170349	1465
21.42742156982422	1427
21.43244194984436	1510
21.43748378753662	1602
21.44249677658081	1563
21.44744896888733	1588
21.452439069747925	1692
21.45746088027954	1676
21.46251916885376	1635
21.467469930648804	1713
21.47256636619568	1739
21.47760510444641	1658
21.482510089874268	1700
21.48748803138733	1759
21.492517471313477	1689
21.497549057006836	1679
21.50264310836792	1751
21.507622241973877	1714
21.512613773345947	1664
21.517613410949707	1726
21.522549867630005	1734
21.52752947807312	1654
21.532546281814575	1694
21.537479877471924	1741
21.54238224029541	1665
21.547418355941772	1648
21.55244541168213	1729
21.55741810798645	1694
21.562445640563965	1628
21.567338466644287	1693
21.57231116294861	1709
21.577296495437622	1629
21.582319021224976	1661
21.58733344078064	1717
21.59244441986084	1647
21.597442388534546	1633
21.60241198539734	1707
21.607410430908203	1668
21.612374305725098	1608
21.617377281188965	1678
21.622354745864868	1703
21.627371549606323	1623
21.632307052612305	1649
21.637341737747192	1706
21.642270803451538	1643
21.64722442626953	1629
21.65224003791809	1706
21.657309770584106	1681
21.66229009628296	1619
21.667145490646362	1678
21.672191858291626	1698
21.677225351333618	1620
21.682217359542847	1659
21.687248945236206	1724
21.692190885543823	1649
21.697254419326782	1624
21.70227575302124	1700
21.707332849502563	1679
21.71235728263855	1612
21.71733283996582	1675
21.722275733947754	1700
21.727296829223633	1621
21.732376098632812	1647
21.73734998703003	1706
21.742300271987915	1641
21.74725580215454	1613
21.752177715301514	1686
21.757121801376343	1666
21.762109518051147	1606
21.767157077789307	1667
21.77229905128479	1687
21.777368783950806	1598
21.7823703289032	1628
21.78742289543152	1692
21.792386770248413	1628
21.79745316505432	1616
21.802484035491943	1689
21.807555437088013	1658
21.812509059906006	1609
21.81762170791626	1685
21.822562217712402	1700
21.827445030212402	1618
21.832504987716675	1647
21.837488174438477	1698
21.842545747756958	1612
21.847473859786987	1583
21.852492094039917	1654
21.857488870620728	1635
21.862528800964355	1575
21.867525339126587	1642
21.872541904449463	1664
21.877591848373413	1581
21.882518768310547	1608
21.887465953826904	1662
21.892450094223022	1593
21.89745283126831	1576
21.90248680114746	1651
21.90745258331299	1615
21.912434816360474	1545
21.917529344558716	1610
21.92245602607727	1628
21.92750573158264	1541
21.93257737159729	1554
21.93759536743164	1508
21.942639112472534	1202
21.947670221328735	934
21.9526424407959	795
21.957552433013916	749
21.962485551834106	768
21.967341899871826	783
21.9721896648407	789
21.977094650268555	1224
21.98207998275757	2076
21.987178802490234	2662
21.99226212501526	2143
21.997167587280273	1541
22.00217318534851	1552
22.007161378860474	1657
22.01207137107849	1567
22.017102479934692	1545
22.022130250930786	1556
22.027215480804443	1501
22.03231143951416	1528
22.03719162940979	1581
22.04224443435669	1509
22.047205686569214	1479
22.05220055580139	1556
22.05718994140625	1539
22.062153100967407	1461
22.067073583602905	1507
22.072118759155273	1532
22.077178716659546	1450
22.08220386505127	1466
22.08719491958618	1526
22.09223484992981	1458
22.09722900390625	1425
22.10211992263794	1492
22.107120752334595	1466
22.112258195877075	1389
22.11721396446228	1443
22.122269868850708	1459
22.127345323562622	1365
22.132381916046143	1379
22.13738226890564	1435
22.142353773117065	1361
22.147274017333984	1315
22.15239119529724	1379
22.157389163970947	1343
22.162256240844727	1272
22.167255401611328	1323
22.17225408554077	1347
22.177253007888794	1265
22.182202100753784	1284
22.187225341796875	1358
22.19217276573181	1301
22.197184801101685	1270
22.202182292938232	1352
22.20722794532776	1357
22.212274312973022	1311
22.21716833114624	1398
22.222066164016724	1473
22.227126121520996	1438
22.23215627670288	1496
22.237250328063965	1610
22.24226713180542	1593
22.247236251831055	1592
22.25232219696045	1697
22.25731587409973	1706
22.262360095977783	1654
22.267334938049316	1727
22.272334337234497	1767
22.277382373809814	1694
22.28236413002014	1723
22.28744626045227	1783
22.292364835739136	1723
22.297307014465332	1701
22.302287101745605	1776
22.30750608444214	1754
22.312374114990234	1686
22.31729769706726	1743
22.32226872444153	1772
22.32725977897644	1691
22.332295894622803	1709
22.337374210357666	1770
22.342339992523193	1707
22.347491979599	1677
22.352484226226807	1747
22.357459783554077	1720
22.362427473068237	1656
22.367368698120117	1710
22.372377634048462	1731
22.37729549407959	1653
22.3823561668396	1674
22.38738203048706	1736
22.392353534698486	1678
22.39738368988037	1651
22.402395486831665	1722
22.407470703125	1696
22.41245675086975	1636
22.417433261871338	1697
22.422450065612793	1718
22.4275381565094	1638
22.432470083236694	1666
22.437472105026245	1724
22.442488431930542	1667
22.447459936141968	1641
22.452513933181763	1717
22.457585096359253	1694
22.4625563621521	1631
22.46756148338318	1692
22.4726083278656	1720
22.47760796546936	1645
22.482717990875244	1680
22.487820625305176	1737
22.49279761314392	1666
22.497822999954224	1647
22.502810955047607	1722
22.50775170326233	1690
22.51280426979065	1639
22.517852306365967	1695
22.522960901260376	1710
22.52787184715271	1631
22.53287649154663	1666
22.53787112236023	1724
22.542901754379272	1651
22.547926664352417	1629
22.5529043674469	1709
22.557960987091064	1674
22.562950372695923	1614
22.567945957183838	1683
22.572953701019287	1697
22.577948808670044	1622
22.582937240600586	1659
22.5879168510437	1714
22.592877626419067	1646
22.59793210029602	1632
22.60292649269104	1712
22.60797095298767	1685
22.613001346588135	1627
22.61800241470337	1696
22.6230309009552	1707
22.627995252609253	1628
22.633052825927734	1665
22.638022422790527	1716
22.642996072769165	1621
22.64799666404724	1591
22.653040170669556	1665
22.65806770324707	1632
22.663105964660645	1580
22.668128490447998	1650
22.673123359680176	1669
22.678095817565918	1593
22.68305516242981	1624
22.688049793243408	1677
22.693071603775024	1598
22.69812846183777	1584
22.703065633773804	1658
22.70804786682129	1620
22.713021993637085	1565
22.71792221069336	1630
22.72295069694519	1645
22.727924346923828	1561
22.7330002784729	1586
22.738060235977173	1579
22.742980003356934	1296
22.7480731010437	1004
22.753044843673706	824
22.758017778396606	750
22.76300048828125	799
22.76789903640747	837
22.772823810577393	795
22.777705430984497	1122
22.782687664031982	1912
22.787700653076172	2603
22.792747735977173	2257
22.79775357246399	1624
22.802791833877563	1540
22.80779790878296	1619
22.81279182434082	1570
22.81781315803528	1571
22.82278800010681	1573
22.827867031097412	1513
22.832847356796265	1548
22.837875843048096	1598
22.84295105934143	1522
22.84798765182495	1496
22.852980136871338	1571
22.85798978805542	1538
22.862931728363037	1472
22.868030071258545	1534
22.872979402542114	1554
22.877856731414795	1462
22.882911205291748	1485
22.887894868850708	1541
22.8929705619812	1466
22.897989988327026	1434
22.903059482574463	1501
22.908053159713745	1465
22.91311264038086	1398
22.918142795562744	1458
22.92311453819275	1465
22.928144693374634	1370
22.933170795440674	1394
22.938124179840088	1442
22.94314742088318	1360
22.948171854019165	1325
22.953157901763916	1390
22.95817995071411	1349
22.963136196136475	1286
22.96811556816101	1339
22.973135471343994	1348
22.978179693222046	1266
22.983124017715454	1303
22.988174200057983	1359
22.99323034286499	1287
22.998207569122314	1280
23.003210306167603	1376
23.008227109909058	1359
23.01322603225708	1323
23.01821494102478	1423
23.02324938774109	1479
23.028247594833374	1444
23.033308267593384	1521
23.038304090499878	1620
23.04336166381836	1591
23.048295259475708	1621
23.05332851409912	1719
23.05827045440674	1707
23.063353300094604	1674
23.068329095840454	1759
23.07345485687256	1782
23.078484773635864	1707
23.083486318588257	1747
23.088509798049927	1802
23.093461990356445	1734
23.098406553268433	1722
23.103381633758545	1795
23.108346700668335	1757
23.113334894180298	1704
23.118300199508667	1771
23.123324632644653	1782
23.128257513046265	1697
23.133386611938477	1732
23.1384596824646	1781
23.143445014953613	1701
23.14841103553772	1688
23.153380393981934	1766
23.15836215019226	1725
23.163326263427734	1665
23.168306350708008	1729
23.173404693603516	1743
23.178330183029175	1659
23.183225870132446	1687
23.18819761276245	1740
23.19318461418152	1674
23.19818663597107	1662
23.203206777572632	1740
23.208258390426636	1709
23.213330268859863	1648
23.218335390090942	1713
23.223316192626953	1734
23.22827672958374	1656
23.23331332206726	1690
23.23832869529724	1743
23.243207216262817	1671
23.24824357032776	1663
23.253281354904175	1744
23.258330821990967	1707
23.263316869735718	1649
23.268306255340576	1720
23.273271560668945	1738
23.278221607208252	1652
23.283252477645874	1687
23.288257598876953	1749
23.293344259262085	1678
23.298309803009033	1661
23.303271532058716	1733
23.30829095840454	1701
23.313228607177734	1644
23.31817603111267	1708
23.323180198669434	1730
23.3281831741333	1649
23.333198070526123	1676
23.338195323944092	1735
23.34322690963745	1666
23.348254919052124	1648
23.353278160095215	1725
23.35830044746399	1690
23.363354206085205	1633
23.368354558944702	1695
23.373323917388916	1707
23.37832808494568	1633
23.38332772254944	1672
23.388282775878906	1719
23.393349409103394	1646
23.398337841033936	1634
23.403401851654053	1706
23.40839409828186	1665
23.413382053375244	1607
23.418408155441284	1672
23.423380851745605	1691
23.428505659103394	1612
23.433480739593506	1650
23.438458681106567	1704
23.443450450897217	1632
23.448452472686768	1620
23.45349383354187	1691
23.45856523513794	1654
23.463568449020386	1604
23.46854829788208	1678
23.47352385520935	1688
23.47852396965027	1607
23.483442068099976	1644
23.488523721694946	1703
23.49349308013916	1644
23.498557567596436	1636
23.50357985496521	1708
23.508609533309937	1664
23.513611555099487	1612
23.518572568893433	1682
23.523574829101562	1693
23.528581857681274	1592
23.53362798690796	1615
23.538676500320435	1665
23.543738842010498	1608
23.548779249191284	1607
23.55389976501465	1679
23.55899405479431	1637
23.563965559005737	1589
23.56897282600403	1658
23.573959827423096	1654
23.578975439071655	1575
23.58398461341858	1624
23.588979721069336	1668
23.59397602081299	1584
23.599077701568604	1584
23.604105710983276	1661
23.609054565429688	1615
23.614084482192993	1570
23.6191565990448	1632
23.62426471710205	1552
23.62922501564026	1245
23.6342613697052	1001
23.6393563747406	816
23.64430570602417	735
23.649088144302368	820
23.654038429260254	807
23.65897846221924	698
23.663898468017578	1107
23.66885805130005	1962
23.673941373825073	2570
23.678954601287842	2211
23.68399405479431	1665
23.688946962356567	1566
23.6939537525177	1574
23.69886064529419	1577
23.70389485359192	1604
23.70887303352356	1548
23.71381974220276	1512
23.71876811981201	1582
23.723820209503174	1580
23.72882056236267	1497
23.733781814575195	1535
23.73874258995056	1587
23.743712902069092	1505
23.74870204925537	1491
23.753751516342163	1565
23.75868058204651	1518
23.763694047927856	1456
23.768755674362183	1517
23.773754119873047	1523
23.778709888458252	1432
23.783711433410645	1465
23.788719415664673	1514
23.793715953826904	1436
23.798733949661255	1414
23.80374050140381	1481
23.80871891975403	1438
23.813663244247437	1375
23.818674564361572	1437
23.823727130889893	1439
23.828755140304565	1344
23.833634853363037	1369
23.838602542877197	1414
23.843607187271118	1332
23.84863567352295	1310
23.853636503219604	1377
23.858660221099854	1334
23.86370277404785	1273
23.868767738342285	1344
23.87382221221924	1360
23.878845691680908	1282
23.883918285369873	1324
23.888992071151733	1384
23.894017219543457	1324
23.899027824401855	1341
23.904090404510498	1447
23.909109115600586	1437
23.914026021957397	1424
23.919058322906494	1538
23.92398428916931	1583
23.928959369659424	1543
23.933998584747314	1624
23.939018487930298	1706
23.944039583206177	1658
23.949055910110474	1674
23.95407223701477	1764
23.95911169052124	1733
23.96412992477417	1691
23.969155073165894	1765
23.97412919998169	1771
23.979082345962524	1695
23.984105825424194	1740
23.98905324935913	1791
23.993996620178223	1716
23.998968839645386	1712
24.00396966934204	1789
24.008930683135986	1751
24.01396155357361	1692
24.018906116485596	1754
24.023823499679565	1766
24.028804302215576	1686
24.033801555633545	1724
24.038755178451538	1775
24.04377317428589	1702
24.048836946487427	1679
24.05390214920044	1754
24.05884337425232	1713
24.063828229904175	1655
24.06882357597351	1721
24.07378363609314	1740
24.078786373138428	1660
24.083824157714844	1691
24.08889889717102	1742
24.093923568725586	1675
24.0988826751709	1670
24.103896856307983	1745
24.10890817642212	1704
24.113978147506714	1662
24.11888027191162	1733
24.123925924301147	1743
24.12889862060547	1665
24.133934020996094	1712
24.138933420181274	1765
24.14390254020691	1694
24.148905515670776	1687
24.15390920639038	1767
24.158931016921997	1731
24.164008140563965	1674
24.168954133987427	1744
24.174031496047974	1752
24.179073333740234	1677
24.184054136276245	1720
24.18905758857727	1767
24.194157123565674	1691
24.199089288711548	1691
24.20410466194153	1766
24.20917534828186	1719
24.214186191558838	1669
24.219156503677368	1740
24.224283933639526	1747
24.229329347610474	1670
24.234381675720215	1716
24.239402770996094	1758
24.244356393814087	1678
24.249333381652832	1682
24.254330158233643	1756
24.25943398475647	1706
24.26443076133728	1662
24.269507884979248	1734
24.27459168434143	1722
24.279606342315674	1650
24.28463125228882	1711
24.289729356765747	1747
24.29461669921875	1660
24.299704551696777	1670
24.30467915534973	1735
24.309701919555664	1678
24.314674854278564	1644
24.319730758666992	1717
24.324779987335205	1700
24.329754114151	1626
24.334723711013794	1674
24.339752912521362	1709
24.344825983047485	1630
24.349775791168213	1646
24.354759216308594	1712
