0.000354051589966	1595
0.000587940216064	1595
0.000776052474976	1594
0.000955104827881	1589
0.00112390518188	1569
0.00128102302551	1506
0.00144100189209	1265
0.00161099433899	947
0.00179505348206	702
0.00196504592896	639
0.00213193893433	892
0.00230002403259	1156
0.00247001647949	1114
0.00264191627502	1217
0.00281190872192	1878
0.00298094749451	2749
0.00315093994141	2770
0.00334692001343	2067
0.00351810455322	1634
0.00368809700012	1650
0.00385713577271	1666
0.00405192375183	1595
0.00422096252441	1539
0.00437808036804	1533
0.00453090667725	1545
0.00468993186951	1538
0.00484395027161	1518
0.00499796867371	1506
0.00515198707581	1505
0.00530695915222	1505
0.00546813011169	1500
0.00562405586243	1498
0.00585293769836	1493
0.00615811347961	1609
0.00636291503906	1592
0.0105760097504	1595
0.015545129776	1578
0.0206129550934	1529
0.0257079601288	1279
0.0306520462036	950
0.0355150699615	755
0.0404369831085	788
0.0453369617462	1075
0.0506060123444	1353
0.0556011199951	1320
0.0604810714722	1339
0.0655379295349	1834
0.0706930160522	2616
0.0756049156189	2657
0.0806159973145	2003
0.0855901241302	1586
0.0905981063843	1620
0.0956721305847	1678
0.100640058517	1620
0.105695962906	1564
0.110872030258	1590
0.115859985352	1597
0.120584964752	1546
0.125504970551	1496
0.130686998367	1487
0.135776042938	1507
0.140780925751	1523
0.145611047745	1513
0.150631904602	1490
0.155601978302	1481
0.160632133484	1486
0.165822029114	1500
0.170864105225	1500
0.175920009613	1491
0.180774927139	1474
0.185652017593	1467
0.190915107727	1469
0.195904016495	1448
0.200752019882	1412
0.205785989761	1392
0.210844039917	1401
0.215708971024	1400
0.220556974411	1392
0.225645065308	1394
0.230770111084	1402
0.235741138458	1427
0.240881919861	1412
0.245786905289	1396
0.250905036926	1424
0.255980014801	1456
0.260828018188	1464
0.265814065933	1466
0.271040916443	1481
0.275861978531	1529
0.280806064606	1560
0.285882949829	1557
0.29087305069	1562
0.296019077301	1578
0.300955057144	1593
0.306030035019	1614
0.310784101486	1637
0.315829992294	1652
0.321058034897	1658
0.325827121735	1662
0.330838918686	1662
0.336053133011	1683
0.340765953064	1705
0.345957994461	1697
0.350827932358	1664
0.35606098175	1642
0.361036062241	1641
0.366101026535	1651
0.370995044708	1656
0.375908136368	1646
0.380967140198	1627
0.385998010635	1615
0.391228914261	1618
0.396245002747	1622
0.400943040848	1616
0.405961990356	1610
0.411020040512	1605
0.41588807106	1601
0.420969963074	1623
0.426090955734	1648
0.430872917175	1636
0.435903072357	1592
0.440968990326	1550
0.44591999054	1559
0.450901031494	1581
0.456069946289	1590
0.460840940475	1604
0.465897083282	1597
0.470895051956	1592
0.475924968719	1595
0.480891942978	1604
0.485902070999	1611
0.490967035294	1628
0.495894908905	1648
0.500939130783	1670
0.506047964096	1672
0.511065006256	1672
0.516148090363	1681
0.521049022675	1663
0.526009082794	1615
0.531021118164	1588
0.536180973053	1597
0.541064977646	1633
0.546066999435	1632
0.551259040833	1586
0.556169033051	1574
0.561028003693	1579
0.565977096558	1575
0.571058988571	1569
0.576163053513	1568
0.58111000061	1565
0.586173057556	1566
0.591156959534	1571
0.596312999725	1556
0.601164102554	1537
0.606200933456	1449
0.611350059509	1153
0.616311073303	871
0.621031999588	797
0.625981092453	988
0.630885124207	1192
0.635981082916	1105
0.641017913818	877
0.645930051804	1172
0.650929927826	2099
0.656096935272	2793
0.660980939865	2328
0.665992975235	1627
0.671064138412	1494
0.676252126694	1630
0.681082963943	1647
0.686104059219	1565
0.691200017929	1514
0.696147918701	1526
0.701158046722	1551
0.706445932388	1551
0.711316108704	1530
0.716274023056	1511
0.721280097961	1499
0.726525068283	1490
0.73143196106	1488
0.73642206192	1489
0.741360902786	1478
0.746489048004	1455
0.751478910446	1449
0.7566010952	1466
0.761464118958	1493
0.766696929932	1469
0.771510124207	1419
0.776535987854	1397
0.781542062759	1392
0.786857128143	1398
0.791825056076	1395
0.79691696167	1357
0.801612138748	1345
0.806591033936	1348
0.811716079712	1334
0.816517114639	1324
0.821615934372	1346
0.826837062836	1405
0.831800937653	1462
0.836594104767	1430
0.841583967209	1340
0.846704006195	1339
0.851808071136	1398
0.856666088104	1482
0.861660003662	1539
0.866676092148	1525
0.871675014496	1498
0.876769065857	1503
0.881730079651	1529
0.886949062347	1568
0.891940116882	1621
0.896847963333	1656
0.901624917984	1677
0.906942129135	1674
0.911983966827	1701
0.916845083237	1746
0.922039985657	1767
0.926964998245	1723
0.931915044785	1655
0.936857938766	1612
0.941973924637	1670
0.946978092194	1748
0.951950073242	1719
0.956984043121	1649
0.962045907974	1604
0.967092037201	1626
0.9720890522	1664
0.977025985718	1717
0.981964111328	1729
0.987132072449	1641
0.992033958435	1575
0.996969938278	1600
1.00192093849	1642
1.00715708733	1636
1.01221299171	1622
1.01706790924	1619
1.02204012871	1608
1.02714490891	1592
1.03209209442	1631
1.03716802597	1672
1.04226994514	1645
1.0474319458	1602
1.05224895477	1641
1.05730295181	1750
1.06248497963	1742
1.0673251152	1639
1.07255792618	1609
1.077450037	1678
1.08249306679	1703
1.08748292923	1717
1.09264397621	1717
1.09772801399	1685
1.10274291039	1643
1.10767507553	1633
1.11277294159	1636
1.11760807037	1630
1.12277412415	1618
1.12781596184	1637
1.13269495964	1642
1.13779902458	1624
1.14288902283	1601
1.14771199226	1609
1.15274405479	1630
1.15766692162	1604
1.16282701492	1571
1.16765499115	1557
1.17266702652	1559
1.1776471138	1533
1.18258404732	1346
1.18772006035	1050
1.19259810448	875
1.19739413261	979
1.20251297951	1286
1.20743012428	1568
1.21229505539	1440
1.21729397774	1221
1.22241997719	1477
1.22740197182	2271
1.23252606392	2613
1.23740792274	2008
1.24241495132	1463
1.24735093117	1464
1.25244212151	1606
1.25723290443	1600
1.26233696938	1538
1.26737713814	1532
1.2722120285	1565
1.27712202072	1575
1.28215098381	1565
1.28746509552	1556
1.29241991043	1564
1.29724311829	1559
1.30225205421	1540
1.30721497536	1532
1.31235313416	1530
1.31722998619	1532
1.32244110107	1527
1.32745504379	1525
1.33237195015	1527
1.33726811409	1512
1.34248209	1489
1.34752297401	1476
1.35261297226	1477
1.35738992691	1474
1.36255502701	1454
1.36747598648	1448
1.37267613411	1440
1.37760806084	1435
1.38240408897	1422
1.38759303093	1422
1.39268994331	1425
1.39743208885	1418
1.40260696411	1410
1.40762805939	1420
1.41249394417	1435
1.41743803024	1444
1.42264103889	1451
1.42745399475	1460
1.43243598938	1470
1.43738293648	1490
1.44247293472	1528
1.44763898849	1546
1.45263504982	1561
1.45745301247	1597
1.46238803864	1626
1.46735310555	1660
1.47262907028	1677
1.4774749279	1669
1.48268508911	1667
1.48750901222	1677
1.49245405197	1708
1.49744606018	1718
1.50242400169	1699
1.50755000114	1683
1.51240897179	1681
1.51735091209	1685
1.52234101295	1678
1.52748298645	1685
1.53248095512	1686
1.53740501404	1686
1.5424990654	1672
1.54742693901	1680
1.55229997635	1683
1.55727910995	1680
1.56259894371	1665
1.56756401062	1657
1.57270097733	1664
1.57750511169	1680
1.58260893822	1669
1.58746790886	1666
1.59261012077	1671
1.59788799286	1681
1.60285401344	1688
1.60784292221	1693
1.61283612251	1699
1.61766791344	1707
1.62279200554	1711
1.6278090477	1715
1.63273906708	1737
1.63784313202	1766
1.64298605919	1773
1.6478099823	1762
1.65272212029	1751
1.65773105621	1749
1.66280794144	1743
1.6680150032	1725
1.6728219986	1694
1.67790102959	1689
1.68274712563	1683
1.68787312508	1668
1.69283890724	1659
1.69799613953	1656
1.70296692848	1654
1.70780491829	1636
1.71292304993	1612
1.71793103218	1612
1.72311306	1624
1.72798395157	1622
1.73291611671	1605
1.73792695999	1596
1.74290394783	1547
1.74816393852	1508
1.7528450489	1345
1.75781798363	1114
1.7628159523	1049
1.76787090302	1227
1.77285003662	1580
1.77805113792	1654
1.78294491768	1356
1.78809809685	1274
1.7932510376	1667
1.79818892479	2288
1.80306005478	2114
1.80817198753	1531
1.81307196617	1338
1.81806612015	1472
1.82301306725	1562
1.82798790932	1552
1.83297204971	1544
1.83793902397	1567
1.84318304062	1577
1.84802293777	1566
1.85311603546	1563
1.85800600052	1570
1.86303400993	1559
1.86807703972	1554
1.87314605713	1560
1.87828207016	1569
1.88333511353	1557
1.88834500313	1548
1.89313006401	1549
1.89807009697	1542
1.90321207047	1540
1.90820908546	1533
1.91319608688	1526
1.91824698448	1511
1.9231569767	1508
1.92815208435	1513
1.93315792084	1504
1.93822693825	1492
1.94338011742	1487
1.94821310043	1485
1.95326805115	1480
1.95832490921	1475
1.96353411674	1472
1.96850204468	1478
1.9733850956	1485
1.978536129	1490
1.98362708092	1498
1.98839592934	1512
1.9933450222	1522
1.99856805801	1521
2.00351309776	1540
2.00851607323	1561
2.01326107979	1569
2.01822113991	1592
2.02324008942	1618
2.02847790718	1646
2.03331303596	1666
2.03833913803	1679
2.04344105721	1686
2.04827594757	1696
2.0531899929	1705
2.05838394165	1708
2.06344604492	1697
2.06837105751	1695
2.07324099541	1695
2.07823896408	1696
2.08315205574	1692
2.08830213547	1690
2.09315800667	1688
2.09825110435	1684
2.10351610184	1689
2.10842895508	1687
2.11331892014	1681
2.11853694916	1682
2.12346196175	1687
2.12840604782	1690
2.13333010674	1679
2.13852000237	1673
2.14333605766	1668
2.14822411537	1672
2.15329408646	1679
2.15854501724	1692
2.1635351181	1695
2.16856503487	1690
2.17325997353	1689
2.17837095261	1693
2.18347907066	1707
2.18870997429	1717
2.19346499443	1717
2.19851207733	1720
2.20341610909	1745
2.20844912529	1769
2.21346712112	1775
2.21858406067	1766
2.22371292114	1750
2.22881197929	1752
2.23345804214	1744
2.2386200428	1712
2.24364495277	1681
2.24857902527	1677
2.25347900391	1678
2.25865292549	1657
2.26364994049	1647
2.26855301857	1652
2.2737390995	1643
2.27864694595	1637
2.28364992142	1625
2.28878307343	1625
2.29366111755	1628
2.29871797562	1615
2.30370402336	1615
2.30882000923	1597
2.31368303299	1520
2.31881999969	1434
2.32388401031	1217
2.32877707481	990
2.3334980011	986
2.33855390549	1300
2.34356713295	1817
2.34848809242	1979
2.35354399681	1681
2.35866594315	1517
2.3635289669	1834
2.36857199669	2354
2.373472929	2117
2.37877202034	1564
2.38367390633	1390
2.38876700401	1504
2.39353013039	1589
2.39862895012	1572
2.40369105339	1542
2.40870594978	1536
2.41354703903	1542
2.41881299019	1554
2.42373204231	1564
2.42863893509	1560
2.43384003639	1528
2.43891096115	1499
2.44396209717	1503
2.44890809059	1510
2.45389413834	1537
2.45873498917	1566
2.46385097504	1531
2.46868610382	1493
2.47393107414	1505
2.47886610031	1510
2.48384904861	1468
2.4888510704	1462
2.49401593208	1460
2.49888491631	1441
2.50408697128	1434
2.50911092758	1412
2.5140080452	1399
2.51902198792	1381
2.52416610718	1377
2.52918291092	1418
2.53397703171	1410
2.53926801682	1400
2.54418301582	1391
2.54902696609	1406
2.5541009903	1429
2.55924296379	1420
2.564193964	1428
2.56911492348	1466
2.5740981102	1478
2.57905912399	1491
2.58410596848	1523
2.58916401863	1552
2.59404993057	1583
2.59914493561	1593
2.60438203812	1600
2.60904502869	1623
2.61408901215	1650
2.61903095245	1655
2.62421298027	1670
2.62902498245	1661
2.63404202461	1657
2.63914990425	1660
2.6440320015	1678
2.64936113358	1688
2.65394902229	1667
2.65902400017	1656
2.66406393051	1638
2.66901612282	1639
2.67404294014	1656
2.67907595634	1670
2.68416595459	1651
2.68905711174	1623
2.69409894943	1618
2.69934010506	1622
2.70417404175	1612
2.70914292336	1614
2.71421599388	1613
2.71943092346	1618
2.7244040966	1618
2.72925901413	1618
2.7343211174	1616
2.73941802979	1616
2.74449896812	1609
2.7494199276	1609
2.75457000732	1618
2.75950503349	1633
2.76442503929	1649
2.76935100555	1660
2.77458691597	1656
2.77963495255	1642
2.78445696831	1627
2.78953099251	1659
2.79475092888	1686
2.79947400093	1698
2.80465292931	1714
2.80955791473	1706
2.81458306313	1691
2.81975293159	1702
2.82463002205	1686
2.82970094681	1642
2.83450198174	1625
2.83968091011	1640
2.84459090233	1633
2.84961700439	1619
2.85477995872	1617
2.85961890221	1614
2.86453199387	1596
2.86953997612	1579
2.87464904785	1597
2.87965393066	1623
2.88464808464	1610
2.88958406448	1590
2.89451909065	1580
2.89952802658	1558
2.90445804596	1467
2.90951704979	1346
2.91475200653	1089
2.91955709457	839
2.9243619442	827
2.92953395844	1117
2.93464899063	1664
2.939661026	1909
2.94477200508	1661
2.94947600365	1536
2.95440292358	1980
2.95965003967	2537
2.96448898315	2196
2.96948313713	1555
2.9747569561	1378
2.97968292236	1464
2.98451113701	1512
2.98953509331	1540
2.99451708794	1542
2.99941706657	1504
3.00477313995	1474
3.0096719265	1483
3.01470208168	1507
3.02000403404	1531
3.02484297752	1447
3.02990198135	1367
3.03504300117	1470
3.04008507729	1599
3.04481911659	1525
3.04982709885	1439
3.05501914024	1430
3.06000113487	1437
3.0648560524	1475
3.07002210617	1476
3.07494306564	1435
3.07991600037	1382
3.08487010002	1376
3.09000992775	1398
3.09489512444	1381
3.10006594658	1329
3.10485506058	1293
3.10984611511	1235
3.11493301392	1160
3.12011694908	1338
3.12509799004	1528
3.12990093231	1445
3.13512396812	1253
3.14000701904	1269
3.14508509636	1466
3.14997696877	1495
3.15525913239	1407
3.16025805473	1347
3.16504907608	1339
3.17007493973	1479
3.17527699471	1622
3.18034505844	1593
3.18512296677	1540
3.19016504288	1569
3.19524502754	1610
3.20024013519	1621
3.20517802238	1609
3.21028804779	1645
3.21524000168	1624
3.22052097321	1557
3.22536802292	1770
3.23024892807	1868
3.2353079319	1733
3.24045801163	1628
3.24533104897	1652
3.25023198128	1694
3.25550913811	1658
3.2603430748	1575
3.26531100273	1593
3.27015304565	1641
3.27529907227	1595
3.28010392189	1643
3.2852101326	1743
3.2902340889	1697
3.295140028	1588
3.30011200905	1551
3.30507802963	1614
3.30993294716	1672
3.31528496742	1645
3.320125103	1586
3.32517004013	1606
3.33011603355	1651
3.33531999588	1654
3.34030604362	1592
3.34515213966	1546
3.35021495819	1602
3.35516810417	1649
3.36020112038	1641
3.36519098282	1625
3.37034511566	1636
3.37544608116	1584
3.38044595718	1647
3.38525390625	1713
3.39022397995	1672
3.39543795586	1650
3.4002840519	1649
3.40541696548	1642
3.41036701202	1689
3.41549396515	1715
3.42035913467	1692
3.42524600029	1701
3.43028593063	1735
3.4354300499	1714
3.44044804573	1685
3.44536304474	1628
3.45032691956	1624
3.45554804802	1674
3.46052002907	1653
3.46533608437	1603
3.47059106827	1603
3.47564792633	1639
3.48045992851	1612
3.48533511162	1608
3.49053192139	1627
3.49554395676	1634
3.50051403046	1611
3.50547099113	1603
3.5103430748	1596
3.51530313492	1577
3.52047395706	1518
3.52525210381	1443
3.53034090996	1201
3.53556895256	923
3.54030299187	814
3.54508209229	1062
3.55028700829	1506
3.55541610718	1740
3.56043601036	1567
3.56537604332	1465
3.57057404518	1829
3.57560396194	2544
3.58038496971	2448
3.58531999588	1766
3.5905790329	1431
3.59564399719	1537
3.60076999664	1647
3.60541701317	1607
3.61049413681	1560
3.61538290977	1563
3.6205739975	1562
3.62541294098	1555
3.63052892685	1574
3.63546895981	1573
3.64068603516	1562
3.64582395554	1554
3.65083813667	1551
3.65590906143	1525
3.66088891029	1520
3.66564893723	1543
3.67069196701	1551
3.67594408989	1523
3.68078398705	1511
3.68582296371	1491
3.69103312492	1458
3.69580793381	1492
3.70075297356	1495
3.70592904091	1466
3.71090102196	1447
3.71598601341	1440
3.72086310387	1441
3.72585010529	1409
3.73081612587	1414
3.73600697517	1426
3.74103713036	1433
3.74592208862	1433
3.75103092194	1436
3.75605297089	1437
3.76083707809	1441
3.765873909	1478
3.77103805542	1536
3.77603697777	1559
3.78090691566	1552
3.78593397141	1550
3.79083490372	1579
3.7958509922	1615
3.80108904839	1624
3.80609607697	1660
3.8110909462	1693
3.8162779808	1703
3.821144104	1709
3.82616305351	1717
3.83100199699	1713
3.83610701561	1744
3.84106206894	1744
3.84605193138	1716
3.85131192207	1743
3.85612511635	1756
3.8613140583	1754
3.86630606651	1723
3.8714530468	1705
3.87650895119	1705
3.88131999969	1708
3.88629508018	1709
3.89137005806	1703
3.89637708664	1676
3.90132308006	1663
3.90654611588	1683
3.91134691238	1684
3.91634511948	1682
3.92123913765	1654
3.92635202408	1607
3.93120503426	1631
3.93640804291	1702
3.94124412537	1682
3.94628095627	1627
3.95125603676	1655
3.95642900467	1698
3.96140193939	1722
3.96630811691	1688
3.97152709961	1644
3.97629404068	1672
3.98122811317	1703
3.98627591133	1692
3.99128603935	1681
3.99614191055	1660
4.00121903419	1661
4.00614213943	1681
4.01124000549	1677
4.01635813713	1662
4.02134394646	1653
4.02649903297	1714
4.03156495094	1799
4.03638195992	1790
4.04137301445	1684
4.04637408257	1653
4.05151700974	1698
4.05655193329	1696
4.06139111519	1669
4.06663894653	1630
4.0714609623	1612
4.07635402679	1591
4.08127999306	1633
4.08655500412	1644
4.09166097641	1633
4.09660410881	1614
4.10152792931	1605
4.10655593872	1588
4.11172604561	1577
4.11657905579	1572
4.12146902084	1582
4.12662601471	1551
4.1315510273	1525
4.13659310341	1406
4.14153695107	1074
4.14666008949	856
4.15172600746	861
4.15650606155	1072
4.16147613525	1430
4.16656708717	1540
4.17172598839	1324
4.17671990395	1388
4.18151712418	1994
4.18672895432	2697
4.19162893295	2367
4.19646596909	1641
4.20145511627	1415
4.20660996437	1524
4.21164298058	1591
4.21648192406	1567
4.22183513641	1534
4.2266459465	1501
4.23155808449	1490
4.23660707474	1525
4.24155807495	1559
4.24679398537	1550
4.25186800957	1502
4.25668406487	1490
4.26161909103	1485
4.26691412926	1488
4.27192401886	1506
4.2768881321	1505
4.28182196617	1500
4.28674292564	1479
4.29174399376	1447
4.29679703712	1407
4.30184292793	1415
4.3070371151	1430
4.31203198433	1448
4.31694793701	1414
4.32176613808	1360
4.32681512833	1417
4.33179807663	1495
4.33683991432	1455
4.34193491936	1387
4.34716010094	1421
4.35199594498	1464
4.35718107224	1443
4.36202406883	1421
4.3671810627	1435
4.37200093269	1452
4.37707591057	1456
4.38189697266	1494
4.387114048	1574
4.39205813408	1606
4.39712095261	1534
4.40194797516	1534
4.40714907646	1612
4.41206598282	1651
4.41713094711	1631
4.42198705673	1621
4.42713594437	1632
4.43206310272	1636
4.43709301949	1658
4.44203591347	1710
4.44714307785	1703
4.45234298706	1673
4.45725297928	1679
4.46202301979	1699
4.46744799614	1717
4.47228002548	1716
4.4771900177	1689
4.48245501518	1627
4.48740506172	1570
4.49227905273	1597
4.49725198746	1694
4.50234794617	1703
4.50727391243	1642
4.51236605644	1605
4.51731991768	1626
4.52266597748	1677
4.52773690224	1677
4.53246593475	1602
4.5373609066	1573
4.54257392883	1625
4.54738807678	1659
4.55249190331	1638
4.55749106407	1601
4.56267309189	1564
4.56752300262	1607
4.57244801521	1664
4.57752299309	1646
4.58268713951	1604
4.58774209023	1623
4.59273910522	1651
4.59753108025	1671
4.60255408287	1660
4.60770511627	1652
4.61263108253	1652
4.61764502525	1691
4.622838974	1692
4.62766504288	1677
4.63262104988	1714
4.63772892952	1712
4.64287495613	1685
4.64776110649	1661
4.652821064	1641
4.65790200233	1639
4.66286802292	1612
4.66780591011	1597
4.6728310585	1645
4.67795109749	1662
4.68298697472	1641
4.68799805641	1595
4.69287014008	1623
4.69786190987	1653
4.70294213295	1610
4.70799708366	1589
4.71288990974	1601
4.71806192398	1595
4.72291207314	1555
4.72792005539	1487
4.73317313194	1310
4.73805308342	1081
4.74340391159	920
4.74818301201	940
4.75289702415	1176
4.75805497169	1480
4.76287698746	1404
4.76804304123	1349
4.77289605141	1701
4.77790093422	2459
4.78302192688	2676
4.78784513474	2027
4.79291796684	1542
4.79795598984	1524
4.80314993858	1615
4.80809092522	1636
4.81290912628	1583
4.81773209572	1518
4.82276511192	1546
4.8278260231	1583
4.83285307884	1552
4.83801913261	1553
4.84304690361	1566
4.84777092934	1549
4.85266304016	1499
4.85790109634	1487
4.86277794838	1504
4.8679459095	1581
4.87295913696	1591
4.87781500816	1539
4.88282895088	1483
4.88802695274	1488
4.89288902283	1494
4.897742033	1496
4.90295004845	1476
4.90800905228	1459
4.91281700134	1436
4.91789102554	1476
4.92288899422	1480
4.9278049469	1448
4.9329559803	1423
4.93778610229	1417
4.94274711609	1460
4.94772005081	1474
4.95281100273	1477
4.95804905891	1484
4.96275997162	1516
4.96787190437	1562
4.97269511223	1577
4.9776699543	1568
4.98303890228	1575
4.98793196678	1582
4.99281597137	1590
4.9977850914	1588
5.00293803215	1625
5.00764393806	1657
5.01263213158	1660
5.01768612862	1635
5.02283000946	1678
5.02810502052	1737
5.03300404549	1705
5.0378510952	1675
5.04292201996	1660
5.04774808884	1674
5.05286693573	1677
5.05768895149	1700
5.06281995773	1715
5.06765413284	1695
5.072701931	1692
5.07798409462	1696
5.08304405212	1659
5.08804798126	1649
5.09292507172	1671
5.09782791138	1670
5.10261797905	1681
5.1077439785	1675
5.11284708977	1672
5.11762309074	1662
5.12281012535	1652
5.12776613235	1629
5.13260412216	1627
5.13765406609	1639
5.14276909828	1644
5.14764499664	1626
5.15273690224	1643
5.15765595436	1629
5.162555933	1614
5.16786003113	1637
5.17273211479	1614
5.17781209946	1569
5.18290901184	1610
5.1879529953	1671
5.19267892838	1686
5.19765305519	1647
5.20280599594	1621
5.20757603645	1666
5.21258807182	1714
5.21769595146	1704
5.22261309624	1695
5.22758793831	1688
5.23265099525	1680
5.2377281189	1704
5.24282693863	1729
5.24783110619	1674
5.25272893906	1628
5.25768995285	1634
5.26284003258	1631
5.26786899567	1638
5.27286410332	1650
5.27805304527	1691
5.28303194046	1703
5.28791308403	1638
5.29311704636	1603
5.29789996147	1615
5.3030769825	1634
5.30808901787	1628
5.31311893463	1642
5.31812095642	1602
5.32324504852	1529
5.32806706429	1346
5.33311700821	1053
5.33799099922	824
5.34306097031	858
5.34787797928	1207
5.35305094719	1565
5.35795998573	1489
5.36287999153	1363
5.36817097664	1657
5.37316703796	2387
5.37807798386	2717
5.38295102119	2117
5.3881521225	1551
5.39313411713	1478
5.39800596237	1581
5.40321207047	1622
5.4081890583	1592
5.41304111481	1570
5.41800713539	1540
5.42310500145	1558
5.428180933	1563
5.43300294876	1531
5.43805909157	1502
5.44311594963	1504
5.44811892509	1474
5.4530980587	1486
5.45809102058	1527
5.46329307556	1495
5.46826195717	1472
5.47311091423	1491
5.47807908058	1506
5.48333501816	1478
5.48831391335	1439
5.4932551384	1452
5.49829006195	1447
5.50316905975	1452
5.5081679821	1441
5.51319599152	1410
5.51848101616	1376
5.52350997925	1373
5.52831506729	1400
5.53323411942	1405
5.5382399559	1415
5.54339194298	1443
5.5482609272	1419
5.55331206322	1405
5.55852103233	1453
5.56344413757	1484
5.56837105751	1488
5.57341003418	1496
5.57866692543	1503
5.58373999596	1506
5.58876013756	1560
5.59361410141	1618
5.59861707687	1603
5.6036400795	1591
5.60874605179	1611
5.61353993416	1646
5.61879301071	1663
5.62369990349	1653
5.62854194641	1658
5.63352513313	1670
5.63877105713	1687
5.64376711845	1689
5.64866805077	1708
5.65361690521	1710
5.65860700607	1642
5.66369390488	1630
5.66872501373	1730
5.6738409996	1707
5.67874193192	1645
5.6838619709	1656
5.68868112564	1677
5.69355010986	1654
5.69887900352	1623
5.7038769722	1616
5.70885109901	1633
5.71368002892	1616
5.71870112419	1605
5.72373008728	1643
5.72893810272	1671
5.73379993439	1616
5.73898005486	1603
5.74398493767	1629
5.74889612198	1618
5.75369811058	1627
5.7589700222	1651
5.76380491257	1655
5.76903390884	1650
5.77394104004	1642
5.77903413773	1640
5.78388309479	1650
5.7887840271	1659
5.79400992393	1654
5.79898810387	1665
5.80398797989	1701
5.8088259697	1723
5.81379199028	1710
5.81870007515	1716
5.82383394241	1735
5.82870101929	1722
5.83390808105	1664
5.83895206451	1629
5.84376597404	1645
5.84878802299	1663
5.85400295258	1659
5.85896205902	1646
5.86386799812	1652
5.86894202232	1660
5.87401604652	1656
5.87890195847	1653
5.88396811485	1647
5.88878798485	1625
5.89396095276	1635
5.89898705482	1631
5.90403604507	1607
5.90881299973	1547
5.91382408142	1427
5.91897106171	1165
5.92398095131	923
5.92888593674	906
5.93369698524	1229
5.93869805336	1623
5.94358611107	1656
5.94883990288	1483
5.95363092422	1622
5.95883798599	2210
5.96385097504	2797
5.96871495247	2385
5.97355103493	1693
5.97853207588	1494
5.98378205299	1617
5.98890900612	1667
5.99403691292	1628
5.9988861084	1610
6.00389099121	1610
6.00897598267	1605
6.01399302483	1612
6.01916313171	1606
6.02416300774	1609
6.02897191048	1602
6.03397202492	1592
6.03902697563	1585
6.04402494431	1571
6.04893398285	1552
6.05407309532	1551
6.05895900726	1544
6.06382393837	1532
6.06888604164	1539
6.07392406464	1534
6.07877111435	1517
6.0840010643	1508
6.08883404732	1495
6.09403800964	1483
6.09886002541	1468
6.10399794579	1450
6.10894298553	1445
6.11392498016	1453
6.11902713776	1453
6.12390398979	1447
6.12878799438	1440
6.13386511803	1447
6.13895010948	1464
6.14398503304	1479
6.14901995659	1498
6.15403008461	1515
6.15897893906	1539
6.1640920639	1559
6.16900491714	1577
6.17400193214	1598
6.17927002907	1618
6.18420004845	1642
6.18891191483	1668
6.19402194023	1696
6.19915699959	1715
6.20409202576	1734
6.2088971138	1748
6.21412110329	1756
6.21898913383	1765
6.22395992279	1778
6.2288339138	1779
6.23406004906	1775
6.23900008202	1777
6.2439789772	1775
6.24878501892	1772
6.25386595726	1764
6.25902295113	1756
6.26390099525	1749
6.2689409256	1744
6.27406311035	1737
6.27884292603	1723
6.28381896019	1712
6.28889012337	1708
6.29392695427	1709
6.29903411865	1709
6.30389404297	1704
6.30880403519	1699
6.31380701065	1696
6.31898403168	1692
6.32402300835	1688
6.32893490791	1686
6.33403491974	1687
6.33895397186	1693
6.34384894371	1693
6.34877991676	1692
6.35391807556	1693
6.35877799988	1697
6.3637509346	1693
6.36869597435	1692
6.37360095978	1700
6.37889909744	1710
6.38398909569	1714
6.38894295692	1713
6.3937959671	1728
6.39905691147	1750
6.40389704704	1769
6.40884900093	1754
6.41373300552	1745
6.41902494431	1741
6.42410898209	1722
6.42902302742	1687
6.43398594856	1667
6.43902301788	1675
6.44409108162	1684
6.44919991493	1678
6.45416808128	1668
6.45921397209	1659
6.46420097351	1655
6.46895909309	1648
6.47411608696	1642
6.47933912277	1632
6.48453402519	1626
6.48955392838	1629
6.49447107315	1623
6.49953007698	1577
6.50461792946	1499
6.50953006744	1248
6.51486110687	947
6.51980996132	789
6.52477192879	924
6.52942299843	1335
6.53459906578	1628
6.5395860672	1561
6.5444009304	1571
6.54944300652	2049
6.5546040535	2742
6.55935192108	2602
6.56426310539	1914
6.56930112839	1567
6.57451605797	1596
6.57929205894	1634
6.58451199532	1588
6.58935594559	1546
6.59429597855	1554
6.59939908981	1561
6.60432910919	1558
6.60931301117	1546
6.61457109451	1540
6.61933398247	1543
6.62436294556	1540
6.62949109077	1548
6.63459300995	1560
6.63959693909	1542
6.6445350647	1509
6.64944601059	1486
6.65442013741	1484
6.65967392921	1487
6.66464209557	1487
6.66950702667	1479
6.67482304573	1474
6.67956495285	1468
6.6845729351	1461
6.68952512741	1461
6.69467592239	1457
6.69990301132	1457
6.70482993126	1469
6.70970392227	1468
6.71466612816	1456
6.71993994713	1447
6.72483801842	1452
6.72960996628	1481
6.73503112793	1512
6.7401239872	1537
6.74485206604	1558
6.74981498718	1575
6.75499892235	1593
6.75998806953	1618
6.76491904259	1644
6.77006006241	1705
6.77499008179	1730
6.78008103371	1664
6.78514003754	1629
6.790102005	1726
6.79537200928	1775
6.80041003227	1689
6.80523610115	1612
6.81029605865	1641
6.81537413597	1699
6.82034397125	1728
6.82515001297	1720
6.8303899765	1706
6.83526992798	1697
6.84026098251	1690
6.8452270031	1699
6.85030198097	1710
6.85549211502	1739
6.86055803299	1749
6.86538290977	1689
6.87025308609	1622
6.87542700768	1640
6.88035106659	1685
6.88525390625	1670
6.89042592049	1634
6.89546108246	1623
6.90031599998	1635
6.90525507927	1644
6.91026306152	1641
6.9154009819	1639
6.92032599449	1640
6.92517805099	1640
6.93015503883	1637
6.93543696404	1634
6.94044613838	1644
6.9452650547	1652
6.9504339695	1648
6.9555079937	1640
6.96035790443	1650
6.9652531147	1659
6.970443964	1671
6.97542190552	1685
6.98037195206	1693
6.985268116	1699
6.99026608467	1687
6.99528813362	1691
7.00049090385	1693
7.0053589344	1667
7.01039195061	1631
7.01549291611	1611
7.02033305168	1602
7.02527713776	1610
7.03039193153	1620
7.03542399406	1627
7.04046607018	1615
7.04540896416	1597
7.05047297478	1590
7.05525398254	1588
7.06041097641	1590
7.06519412994	1587
7.07037901878	1582
7.07528805733	1569
7.08034110069	1541
7.08540701866	1470
7.09026813507	1230
7.09528112411	964
7.10038304329	784
7.10512113571	790
7.10997700691	1048
7.11502099037	1252
7.1199491024	1208
7.1249499321	1412
7.12998008728	2106
7.13516902924	2717
7.14028811455	2366
7.14515900612	1759
7.14997792244	1572
7.1551721096	1640
7.16009092331	1619
7.16496491432	1534
7.16999912262	1500
7.17495298386	1525
7.17997002602	1536
7.18504405022	1522
7.19021105766	1512
7.19507408142	1506
7.20022201538	1500
7.20519590378	1496
7.21006011963	1488
7.21502614021	1469
7.22022104263	1461
7.2251970768	1461
7.23004698753	1458
7.23529601097	1445
7.24009394646	1441
7.24509906769	1440
7.25012803078	1431
7.25524401665	1416
7.26012992859	1409
7.26507997513	1403
7.27018094063	1391
7.27515912056	1381
7.28045892715	1377
7.28538799286	1368
7.29039502144	1363
7.29557704926	1368
7.30055308342	1377
7.30528903008	1385
7.3104660511	1392
7.31541705132	1411
7.32045602798	1433
7.32535600662	1451
7.33055710793	1457
7.33534598351	1466
7.34057402611	1482
7.34540200233	1496
7.35041213036	1510
7.35541200638	1523
7.36047196388	1548
7.36524105072	1569
7.37031197548	1584
7.37538909912	1603
7.38030290604	1619
7.38533997536	1624
7.39049601555	1630
7.39526605606	1638
7.40021800995	1646
7.40530705452	1649
7.41036891937	1644
7.41552710533	1635
7.42051792145	1625
7.42531394958	1628
7.43024897575	1637
7.43538498878	1630
7.44036507607	1613
7.44521403313	1607
7.45029997826	1608
7.45548701286	1611
7.46026301384	1600
7.46513199806	1586
7.47017598152	1580
7.47522306442	1585
7.48013305664	1579
7.48512411118	1569
7.49007701874	1572
7.49509501457	1583
7.50020599365	1588
7.50507497787	1580
7.51009106636	1578
7.51522111893	1586
7.52001810074	1586
7.52498793602	1580
7.53002405167	1580
7.53519892693	1588
7.54017996788	1598
7.5450630188	1608
7.5501101017	1627
7.55506205559	1646
7.56026005745	1663
7.56510710716	1658
7.57006406784	1648
7.57524800301	1644
7.58030200005	1628
7.5850520134	1592
7.59001803398	1573
7.59505105019	1580
7.60029101372	1584
7.60520601273	1581
7.61013197899	1586
7.61526894569	1588
7.62009096146	1571
7.62523603439	1559
7.63045907021	1558
7.63549399376	1558
7.64063000679	1558
7.64534401894	1555
7.65037298203	1552
7.65565299988	1523
7.66059303284	1473
7.66558694839	1237
7.67074894905	945
7.6754860878	808
7.68043208122	926
7.68542194366	1180
7.69040894508	1242
7.6954190731	1011
7.7004430294	1058
7.70518898964	1783
7.71015405655	2692
7.71518993378	2492
7.72021007538	1711
7.72536301613	1433
7.73060202599	1574
7.73560500145	1617
7.74044299126	1537
7.74551200867	1493
7.75060200691	1514
7.75572109222	1534
7.76063299179	1525
7.76543807983	1503
7.77053713799	1493
7.77574110031	1496
7.78055691719	1498
7.78573107719	1492
7.79065513611	1485
7.79568505287	1479
7.80054092407	1471
7.80552697182	1467
7.81057906151	1461
7.81562900543	1449
7.8205370903	1441
7.82555198669	1440
7.83056211472	1429
7.83556699753	1417
7.84069395065	1406
7.84558296204	1399
7.85075712204	1385
7.85558891296	1374
7.86061406136	1370
7.86552906036	1372
7.87074995041	1370
7.87568807602	1371
7.88064312935	1372
7.8858101368	1378
7.8906121254	1397
7.89554190636	1417
7.90068602562	1433
7.90562796593	1449
7.91067290306	1462
7.91589307785	1474
7.92071509361	1483
7.92586612701	1512
7.93081593513	1548
7.93580794334	1575
7.94098496437	1600
7.94589805603	1623
7.95103907585	1645
7.95594096184	1661
7.96082997322	1670
7.96600294113	1681
7.97096800804	1700
7.97602510452	1708
7.98103809357	1703
7.98597097397	1693
7.99092793465	1687
7.99583506584	1683
8.00093412399	1675
8.00595998764	1674
8.01119208336	1674
8.01605010033	1665
8.02111291885	1658
8.02607703209	1652
8.03112196922	1645
8.03621912003	1643
8.04107308388	1649
8.04606890678	1651
8.05110907555	1646
8.05628204346	1642
8.06105804443	1640
8.06607913971	1640
8.07134890556	1645
8.07633900642	1655
8.08109498024	1654
8.08603811264	1653
8.09127998352	1663
8.09629201889	1664
8.10118699074	1658
8.10629796982	1660
8.11114001274	1672
8.11609697342	1686
8.12122106552	1708
8.1261920929	1725
8.1314561367	1731
8.13644099236	1712
8.14122700691	1715
8.14623999596	1728
8.15146493912	1718
8.15639305115	1682
8.16127300262	1655
8.16644191742	1655
8.17144703865	1661
8.17627000809	1655
8.18128800392	1658
8.18639993668	1657
8.1913869381	1648
8.1964199543	1636
8.20152401924	1627
8.20636510849	1626
8.21141505241	1622
8.21641993523	1616
8.22129392624	1610
8.22665596008	1584
8.23153710365	1541
8.23652100563	1322
8.24158811569	1018
8.24665904045	871
8.25163602829	1003
8.25689411163	1387
8.26160001755	1619
8.26659393311	1460
8.27160096169	1391
8.27684402466	1822
8.28205704689	2582
8.28704190254	2505
8.2920999527	1799
8.29689598083	1456
8.30179095268	1544
8.30691194534	1643
8.31197309494	1611
8.31722211838	1570
8.32208800316	1578
8.32724809647	1591
8.33200907707	1590
8.33701300621	1580
8.34212613106	1575
8.34726691246	1566
8.35230302811	1560
8.35711693764	1562
8.36201810837	1559
8.36729311943	1554
8.37236690521	1544
8.37716794014	1538
8.38222503662	1531
8.38741397858	1528
8.39226508141	1521
8.3972120285	1509
8.40243792534	1487
8.407351017	1478
8.41242408752	1477
8.41744494438	1461
8.42247104645	1448
8.42744612694	1443
8.43250894547	1431
8.43734097481	1420
8.44256401062	1416
8.44758796692	1426
8.45239901543	1438
8.45745205879	1455
8.4626789093	1465
8.46777892113	1470
8.47277402878	1489
8.47759890556	1517
8.48285794258	1538
8.48765206337	1551
8.49265599251	1572
8.49745607376	1595
8.50260806084	1622
8.50770306587	1650
8.5126709938	1671
8.51743006706	1689
8.52259802818	1705
8.52737998962	1723
8.53259301186	1735
8.5373609066	1749
8.54254508018	1757
8.54737305641	1760
8.55239200592	1761
8.55744791031	1759
8.562541008	1758
8.56754899025	1749
8.57252597809	1748
8.57725000381	1745
8.58238601685	1737
8.5874710083	1727
8.59238409996	1724
8.59741091728	1720
8.60261201859	1710
8.60735297203	1702
8.61228299141	1698
8.61731100082	1697
8.62241911888	1698
8.62744903564	1695
8.63248491287	1688
8.63731002808	1680
8.64223909378	1686
8.64734792709	1692
8.65233302116	1699
8.65727305412	1699
8.66234898567	1696
8.66740107536	1699
8.67217206955	1706
8.67710494995	1712
8.68236494064	1725
8.68742394447	1742
8.69249010086	1760
8.697286129	1773
8.70230197906	1747
8.70734405518	1749
8.71235394478	1757
8.71739792824	1728
8.72234201431	1683
8.72753000259	1672
8.7323179245	1681
8.73729205132	1689
8.74225902557	1689
8.74737811089	1687
8.75232195854	1681
8.75738692284	1668
8.76238799095	1665
8.76743507385	1658
8.77247595787	1654
8.77744698524	1650
8.78255605698	1651
8.78761291504	1638
8.79250407219	1602
8.79750800133	1513
8.8026740551	1220
8.80752491951	932
8.81266212463	871
8.81754112244	1139
8.8227519989	1559
8.82746100426	1687
8.83252811432	1541
8.83759093285	1634
8.84244298935	2190
8.847645998	2755
8.85267710686	2386
8.85760903358	1712
8.86250591278	1510
8.86751794815	1600
8.87259602547	1638
8.87741398811	1591
8.88259410858	1562
8.88739895821	1574
8.89248204231	1583
8.89759802818	1572
8.90272593498	1558
8.90784597397	1560
8.91277194023	1560
8.91769313812	1555
8.9227449894	1547
8.92775297165	1540
8.93260908127	1528
8.93755412102	1521
8.94283890724	1515
8.94770598412	1509
8.95253205299	1501
8.95772790909	1496
8.96273398399	1484
8.96784591675	1470
8.97290611267	1461
8.97770595551	1452
8.98283004761	1437
8.98803210258	1431
8.99294400215	1432
8.99820899963	1430
9.00326490402	1431
9.00833010674	1437
9.0130879879	1447
9.01803803444	1461
9.0232629776	1480
9.02803111076	1503
9.03320503235	1525
9.038159132	1543
9.04312300682	1565
9.04813504219	1582
9.05319809914	1596
9.0581240654	1609
9.06330108643	1624
9.06829190254	1643
9.07306694984	1663
9.07803106308	1679
9.08317708969	1689
9.08812308311	1699
9.09313201904	1717
9.09852790833	1728
9.1034040451	1732
9.10824990273	1732
9.11323308945	1740
9.11838912964	1741
9.1232919693	1738
9.12851595879	1735
9.13342094421	1730
9.13837409019	1719
9.14350199699	1715
9.14851713181	1710
9.15340709686	1703
9.15858197212	1695
9.16363096237	1691
9.16858100891	1687
9.17347407341	1676
9.17860102654	1670
9.18359994888	1667
9.18872594833	1662
9.19363903999	1660
9.1986041069	1653
9.20349502563	1649
9.20860505104	1656
9.21356511116	1661
9.21876907349	1662
9.22381091118	1663
9.2285990715	1663
9.23337101936	1672
9.23855113983	1680
9.24340295792	1692
9.24865102768	1711
9.25342297554	1732
9.25858902931	1737
9.26333212852	1721
9.26857209206	1724
9.27334094048	1722
9.27860498428	1699
9.28360009193	1665
9.28857803345	1653
9.29347705841	1654
9.29861998558	1661
9.30369496346	1657
9.30868697166	1660
9.3134829998	1652
9.31871700287	1641
9.32369112968	1633
9.32867598534	1628
9.33357000351	1618
9.33871912956	1618
9.3435690403	1625
9.34879398346	1622
9.35365605354	1590
9.35860896111	1516
9.36377310753	1252
9.36859893799	954
9.37346291542	786
9.37854003906	853
9.3832950592	1202
9.38829398155	1508
9.39334011078	1488
9.39855599403	1546
9.40356492996	2096
9.40859413147	2738
9.41348195076	2490
9.418405056	1836
9.4235329628	1596
9.42837405205	1655
9.4333999157	1646
9.43857002258	1563
9.44366812706	1526
9.44853496552	1559
9.45349693298	1572
9.45837306976	1548
9.46349692345	1517
9.46858096123	1521
9.47333812714	1540
9.47832107544	1534
9.48316597939	1514
9.48824095726	1495
9.49328708649	1492
9.49843406677	1510
9.50346112251	1519
9.50834608078	1506
9.51313900948	1487
9.51816511154	1467
9.52334499359	1453
9.52833390236	1468
9.53315401077	1477
9.53826594353	1460
9.54324698448	1448
9.54820609093	1431
9.553139925	1428
9.55809211731	1444
9.56312203407	1455
9.56815505028	1454
9.57320713997	1462
9.57831311226	1487
9.58332395554	1513
9.58816409111	1536
9.59329104424	1562
9.59839200974	1581
9.60328602791	1591
9.60841798782	1607
9.61347603798	1625
9.61853003502	1631
9.62350606918	1633
9.62856602669	1637
9.63357496262	1637
9.63855910301	1641
9.64355611801	1652
9.64861106873	1657
9.65354609489	1664
9.65879392624	1672
9.66365695	1678
9.66862893105	1670
9.67350912094	1665
9.678647995	1679
9.68377113342	1686
9.68885707855	1674
9.69368696213	1659
9.69860196114	1652
9.70355010033	1652
9.70869708061	1653
9.71351313591	1643
9.71873307228	1632
9.72382712364	1626
9.72860097885	1624
9.73359894753	1617
9.73885202408	1610
9.74378395081	1608
9.74879407883	1604
9.75385403633	1597
9.75863099098	1590
9.76356196404	1585
9.76872205734	1581
9.77354001999	1585
9.77875900269	1591
9.78372502327	1589
9.78888702393	1586
9.79351091385	1589
9.79860496521	1592
9.80363106728	1588
9.80848097801	1591
9.81342196465	1606
9.81872606277	1614
9.82352113724	1619
9.82846713066	1636
9.83344101906	1652
9.83866405487	1662
9.84351706505	1658
9.84858298302	1666
9.8535399437	1661
9.85851693153	1632
9.86355400085	1600
9.86860609055	1585
9.87346506119	1595
9.8786110878	1603
9.88345813751	1594
9.8884510994	1588
9.89356803894	1588
9.89870810509	1581
9.90368890762	1573
9.90877890587	1562
9.91354894638	1559
9.91846895218	1556
9.92369890213	1550
9.92857193947	1549
9.93356895447	1527
9.93878293037	1476
9.94371008873	1244
9.94861197472	950
9.9536280632	763
9.9583530426	717
9.96347403526	936
9.9682970047	1175
9.97316503525	1154
9.97807002068	1204
9.98317408562	1829
9.98816609383	2621
9.99300599098	2532
9.99812698364	1873
10.0033419132	1568
10.0081949234	1636
10.0131590366	1641
10.0181419849	1536
10.023225069	1472
10.0281190872	1490
10.0331099033	1511
10.0380380154	1494
10.0430779457	1474
10.0480210781	1466
10.0529909134	1459
10.0580170155	1460
10.0632469654	1457
10.0679850578	1452
10.0729830265	1451
10.0782051086	1449
10.0832030773	1442
10.0881519318	1427
10.0930709839	1418
10.0979840755	1415
10.1030330658	1405
10.1080069542	1395
10.1129970551	1398
10.1180109978	1392
10.1231701374	1381
10.1279990673	1371
10.1330270767	1359
10.1380081177	1356
10.1429469585	1366
10.1479020119	1375
10.1529769897	1374
10.1580510139	1376
10.1628909111	1395
10.168076992	1411
10.1730349064	1423
10.1782159805	1432
10.1832220554	1452
10.1881411076	1481
10.1931080818	1495
10.1978759766	1506
10.2028799057	1518
10.2077829838	1537
10.212692976	1557
10.2179479599	1577
10.2228300571	1590
10.2278039455	1598
10.2330341339	1616
10.23802495	1629
10.2428369522	1643
10.2480471134	1648
10.2530860901	1645
10.2579710484	1649
10.2627699375	1650
10.2678871155	1649
10.2727761269	1652
10.2777841091	1654
10.2830131054	1644
10.2878041267	1632
10.292757988	1625
10.2980270386	1624
10.3029780388	1619
10.307986021	1618
10.3128869534	1611
10.3177261353	1602
10.322660923	1595
10.3278329372	1597
10.3326461315	1595
10.3375649452	1589
10.3427219391	1590
10.3475379944	1589
10.3525240421	1578
10.357624054	1576
10.3626899719	1587
10.3676869869	1582
10.3725709915	1585
10.3775689602	1592
10.3825531006	1596
10.3877279758	1601
10.392663002	1600
10.3976171017	1597
10.4027700424	1604
10.4076421261	1640
10.4125990868	1663
10.4175441265	1673
10.4226880074	1658
10.4275400639	1656
10.4327940941	1660
10.437623024	1637
10.4425549507	1600
10.4478099346	1585
10.4527330399	1592
10.4576790333	1596
10.4627170563	1593
10.4675879478	1594
10.4726579189	1592
10.477478981	1578
10.4825239182	1571
10.4875600338	1560
10.4924449921	1562
10.4976840019	1565
10.5025761127	1556
10.5076990128	1552
10.5127739906	1542
10.5178890228	1484
10.522851944	1218
10.5277891159	929
10.5326321125	797
10.5375170708	917
10.542527914	1128
10.5477130413	1098
10.5525159836	850
10.5574569702	1043
10.5626311302	1945
10.5675299168	2781
10.5726621151	2419
10.5776100159	1679
10.5826001167	1492
10.5875930786	1638
10.5925180912	1659
10.5973820686	1568
10.6025419235	1525
10.607419014	1547
10.6125259399	1569
10.6174919605	1558
10.6226279736	1537
10.6275241375	1530
10.6324689388	1527
10.6375389099	1521
10.6426050663	1518
10.6478121281	1514
10.6527919769	1510
10.6575369835	1502
10.6625080109	1494
10.6675260067	1488
10.6726589203	1475
10.6774871349	1460
10.6826751232	1448
10.6876630783	1441
10.6924431324	1428
10.6975400448	1418
10.7027199268	1407
10.7074871063	1396
10.7125859261	1386
10.7175009251	1378
10.7225739956	1372
10.7274940014	1370
10.7325320244	1368
10.737445116	1383
10.7425401211	1397
10.7476389408	1406
10.752450943	1421
10.7575139999	1440
10.7626039982	1461
10.7676019669	1481
10.7724840641	1488
10.7775161266	1504
10.7824990749	1539
10.7874031067	1568
10.7923159599	1597
10.797303915	1621
10.8023400307	1646
10.8076300621	1678
10.8125009537	1700
10.8174130917	1712
10.8226950169	1718
10.8276290894	1725
10.8327140808	1733
10.837501049	1726
10.8426949978	1712
10.8475739956	1714
10.8527600765	1720
10.8575770855	1718
10.8627810478	1715
10.8675889969	1705
10.8727841377	1698
10.8775019646	1694
10.8825540543	1686
10.8877661228	1679
10.8926050663	1676
10.8977301121	1670
10.9030270576	1662
10.9077110291	1661
10.9127559662	1672
10.9178700447	1673
10.9230029583	1654
10.9279909134	1659
10.9330370426	1675
10.9378170967	1677
10.9427659512	1663
10.9479930401	1666
10.953042984	1665
10.9578709602	1671
10.9630410671	1677
10.9679031372	1681
10.9728219509	1690
10.9780781269	1702
10.9830970764	1708
10.9879069328	1700
10.9929940701	1714
10.9980170727	1745
11.0031139851	1764
11.0080749989	1763
11.0130519867	1752
11.0181429386	1753
11.0233049393	1764
11.0283141136	1739
11.0330600739	1695
11.0381391048	1679
11.0432019234	1690
11.0483019352	1691
11.0532541275	1690
11.0582940578	1687
11.0633330345	1675
11.0681960583	1666
11.0734400749	1670
11.0782380104	1662
11.0834591389	1650
11.0882921219	1651
11.0932230949	1656
11.0982410908	1635
11.103374958	1608
11.1086649895	1542
11.113366127	1268
11.1186249256	975
11.1233589649	866
11.128123045	1053
11.1333839893	1370
11.1384899616	1386
11.1432521343	1171
11.1484041214	1359
11.1533360481	2118
11.1584091187	2786
11.1634781361	2386
11.1684479713	1689
11.1734819412	1524
11.1785979271	1655
11.1836090088	1687
11.1884989738	1618
11.1933019161	1593
11.1985211372	1613
11.2036049366	1613
11.2084901333	1601
11.2136080265	1604
11.2184770107	1605
11.2234780788	1597
11.2286491394	1589
11.2334549427	1583
11.2386479378	1578
11.2437229156	1575
11.2485489845	1567
11.2535259724	1554
11.2585439682	1544
11.2637629509	1533
11.268625021	1519
11.2736430168	1506
11.2786099911	1506
11.2834970951	1502
11.2885141373	1486
11.2934720516	1464
11.2987060547	1451
11.3037600517	1447
11.3086349964	1441
11.3136200905	1436
11.3188779354	1429
11.3236761093	1436
11.3286950588	1451
11.3337790966	1464
11.3389120102	1474
11.3437380791	1485
11.3489711285	1499
11.3538229465	1517
11.3588271141	1544
11.3640210629	1563
11.3689880371	1589
11.3738820553	1616
11.3790149689	1640
11.3839850426	1666
11.3889529705	1690
11.3940720558	1712
11.3990619183	1730
11.4039931297	1741
11.408894062	1752
11.4140279293	1757
11.4190139771	1758
11.4240350723	1761
11.4289400578	1767
11.4339799881	1772
11.4389691353	1777
11.4439489841	1776
11.4489660263	1765
11.4541471004	1748
11.4592270851	1745
11.4640820026	1743
11.4689600468	1731
11.4740200043	1724
11.4791390896	1721
11.483948946	1715
11.489125967	1706
11.494081974	1701
11.4990279675	1694
11.504199028	1689
11.5089600086	1684
11.5140149593	1682
11.5192530155	1681
11.5240840912	1683
11.528979063	1684
11.5339710712	1682
11.5390689373	1681
11.5440700054	1680
11.549161911	1673
11.5540311337	1667
11.5591719151	1676
11.5640649796	1680
11.569270134	1676
11.5741240978	1679
11.5792939663	1685
11.5841350555	1691
11.5890500546	1696
11.5939769745	1699
11.5991070271	1704
11.6040689945	1709
11.6089959145	1723
11.6140129566	1744
11.6191329956	1765
11.6240060329	1751
11.6290791035	1741
11.6342470646	1741
11.6390230656	1719
11.6442329884	1679
11.6490681171	1658
11.6540670395	1663
11.659058094	1678
11.6640679836	1672
11.6690769196	1666
11.6740441322	1662
11.6792781353	1654
11.6840679646	1642
11.689084053	1634
11.6940879822	1633
11.699037075	1629
11.7040810585	1623
11.7091939449	1630
11.7142279148	1629
11.719137907	1619
11.7240281105	1458
11.7291219234	1135
11.734030962	866
11.7391860485	869
11.743942976	1132
11.7487440109	1334
11.7537250519	1203
11.7587730885	1146
11.7640199661	1580
11.7688879967	2417
11.7738220692	2739
11.7788469791	2130
11.7839519978	1583
11.788752079	1547
11.7940580845	1645
11.7992100716	1637
11.8041300774	1577
11.8091111183	1565
11.8140070438	1585
11.8191690445	1580
11.8241620064	1562
11.8291299343	1558
11.8342759609	1558
11.8393781185	1550
11.8442521095	1545
11.8495240211	1535
11.854362011	1523
11.8595449924	1520
11.8644499779	1522
11.8693399429	1513
11.8743329048	1505
11.8794350624	1503
11.8844211102	1496
11.8893671036	1486
11.8946950436	1477
11.8996899128	1466
11.9044449329	1450
11.9093770981	1438
11.9144599438	1434
11.9194791317	1426
11.9245369434	1430
11.9294269085	1435
11.9345149994	1436
11.9396851063	1449
11.9447231293	1469
11.9495351315	1481
11.9547400475	1494
11.9597260952	1505
11.9646770954	1534
11.9695150852	1563
11.9745249748	1578
11.9798629284	1583
11.984817028	1600
11.989634037	1618
11.9946789742	1637
11.9995779991	1656
12.004748106	1664
12.0096180439	1682
12.0148580074	1696
12.0198841095	1707
12.0247790813	1714
12.0295879841	1721
12.034621954	1721
12.0396649837	1727
12.0447869301	1730
12.0496649742	1732
12.0546591282	1724
12.0596470833	1717
12.0646669865	1711
12.0695550442	1701
12.0746080875	1690
12.0798120499	1680
12.0848679543	1672
12.0896730423	1666
12.0949509144	1662
12.0997040272	1655
12.1046581268	1641
12.1096141338	1627
12.1149001122	1635
12.1197829247	1635
12.1246321201	1627
12.1296439171	1625
12.1347820759	1624
12.1399559975	1623
12.144851923	1623
12.149684906	1624
12.1545550823	1626
12.1597890854	1622
12.1649730206	1624
12.1701009274	1623
12.1749770641	1640
12.1797189713	1649
12.1846759319	1643
12.1896789074	1635
12.1948571205	1637
12.2000300884	1652
12.2048399448	1651
12.2098491192	1644
12.214869976	1640
12.220015049	1636
12.2247159481	1646
12.2299051285	1651
12.2348620892	1643
12.2398431301	1634
12.2447459698	1632
12.2498381138	1632
12.2546589375	1631
12.2599821091	1636
12.2647609711	1647
12.269810915	1649
12.2747650146	1642
12.2799479961	1641
12.2849869728	1645
12.2898359299	1663
12.2950499058	1680
12.3000810146	1694
12.3048379421	1681
12.309992075	1672
12.3150470257	1681
12.3199779987	1656
12.3250420094	1611
12.3301589489	1595
12.3350660801	1602
12.340102911	1620
12.3450651169	1620
12.3500859737	1609
12.3552310467	1600
12.3604331017	1592
12.3653321266	1590
12.3703029156	1585
12.3755791187	1581
12.3805439472	1573
12.3854191303	1571
12.3905389309	1571
12.3955440521	1578
12.4004039764	1573
12.405369997	1447
12.4105010033	1141
12.4153990746	839
12.4201190472	657
12.4250941277	798
12.4299991131	1107
12.4350090027	1173
12.4401199818	1130
12.4450969696	1518
12.4502189159	2307
12.4553449154	2702
12.4602270126	2214
12.4651169777	1674
12.4702470303	1592
12.4752829075	1637
12.4803450108	1604
12.4853029251	1543
12.490306139	1526
12.4952790737	1536
12.5003259182	1555
12.5053219795	1539
12.510420084	1521
12.5154960155	1513
12.5203840733	1503
12.5252370834	1500
12.5303099155	1499
12.5355989933	1491
12.5405380726	1488
12.5453839302	1487
12.5504310131	1479
12.55550313	1466
12.5604510307	1456
12.5653619766	1456
12.5704710484	1452
12.5755910873	1438
12.5805370808	1432
12.5856080055	1431
12.590651989	1420
12.5957491398	1419
12.6006939411	1426
12.6056680679	1421
12.6110200882	1421
12.6159639359	1428
12.6208469868	1436
12.6258780956	1456
12.6310620308	1478
12.6361961365	1493
12.6410210133	1511
12.6459980011	1538
12.6511199474	1562
12.6560330391	1582
12.6609060764	1596
12.6661159992	1606
12.6709089279	1618
12.6760110855	1629
12.680948019	1634
12.6859381199	1639
12.6910159588	1646
12.6961939335	1651
12.701020956	1660
12.706001997	1661
12.7109649181	1667
12.7158739567	1670
12.7209429741	1671
12.7261021137	1671
12.7311029434	1666
12.7363190651	1663
12.7410299778	1660
12.7459681034	1654
12.7510809898	1647
12.7559659481	1645
12.7610321045	1644
12.7660300732	1636
12.7712490559	1624
12.7760989666	1619
12.7810220718	1617
12.7860879898	1609
12.7910139561	1598
12.7961609364	1592
12.8010280132	1588
12.8060219288	1587
12.811052084	1578
12.8162429333	1573
12.82112813	1578
12.8261330128	1585
12.8313341141	1579
12.8362410069	1575
12.841203928	1578
12.8462741375	1575
12.8513789177	1577
12.8562779427	1579
12.861289978	1572
12.8663201332	1583
12.8712749481	1584
12.8763000965	1580
12.8811879158	1578
12.8861961365	1578
12.8914420605	1579
12.8962459564	1577
12.9012241364	1578
12.9063339233	1579
12.9115130901	1579
12.9163489342	1576
12.9214220047	1573
12.9266710281	1566
12.9314529896	1567
12.9365050793	1569
12.9414510727	1567
12.9466910362	1567
12.9517199993	1568
12.956715107	1570
12.9616639614	1580
12.9666509628	1589
12.9716899395	1598
12.9767510891	1602
12.9819419384	1610
12.9867939949	1627
12.9917769432	1635
12.9968059063	1625
13.0019829273	1616
13.0068740845	1603
13.0120830536	1577
13.0169289112	1565
13.0218780041	1563
13.0269091129	1569
13.0319769382	1573
13.0368280411	1573
13.041862011	1569
13.0469870567	1560
13.051748991	1555
13.0567550659	1551
13.0619931221	1553
13.0670521259	1542
13.0720179081	1536
13.0769460201	1543
13.0821409225	1549
13.0869231224	1543
13.0919320583	1523
13.0969460011	1330
13.1020801067	1015
13.1071851254	762
13.112044096	730
13.1166799068	907
13.1214749813	989
13.1266000271	844
13.131467104	927
13.1363301277	1640
13.1411969662	2553
13.1461279392	2592
13.1511731148	1899
13.1561999321	1527
13.1612639427	1614
13.1662979126	1658
13.1714160442	1559
13.1763401031	1483
13.1812889576	1492
13.1864640713	1516
13.1912341118	1513
13.1964840889	1491
13.2012269497	1473
13.2063379288	1469
13.2113039494	1469
13.2163441181	1460
13.2212331295	1452
13.2263951302	1447
13.2314059734	1444
13.2362449169	1441
13.2412359715	1440
13.2464771271	1427
13.2513890266	1421
13.2565231323	1419
13.2614719868	1409
13.2667410374	1397
13.2715709209	1382
13.2766160965	1368
13.2815830708	1362
13.2867491245	1355
13.2918319702	1347
13.2967939377	1341
13.3016691208	1341
13.3066940308	1340
13.3117771149	1345
13.316740036	1354
13.321680069	1366
13.3267970085	1392
13.3315551281	1414
13.336523056	1417
13.3413920403	1425
13.3466060162	1451
13.3515620232	1473
13.3565850258	1497
13.3614859581	1529
13.3665149212	1556
13.3716580868	1564
13.3764269352	1579
13.3814959526	1605
13.3866081238	1625
13.3915691376	1634
13.3964269161	1651
13.4014890194	1664
13.4065420628	1662
13.4115440845	1662
13.4164829254	1667
13.4214761257	1681
13.4265041351	1686
13.4315779209	1673
13.4367311001	1665
13.4415719509	1658
13.446901083	1653
13.4517970085	1646
13.4565989971	1648
13.4615859985	1648
13.4668431282	1637
13.4718229771	1628
13.4766879082	1622
13.4818339348	1624
13.4868791103	1615
13.4918010235	1610
13.4966650009	1609
13.501912117	1606
13.5068950653	1604
13.5119059086	1596
13.5168120861	1597
13.5218119621	1598
13.5268969536	1602
13.5319340229	1603
13.5368180275	1600
13.5419631004	1600
13.5470180511	1601
13.5518770218	1609
13.5568580627	1615
13.5620319843	1619
13.5670700073	1624
13.5721609592	1625
13.5771179199	1618
13.5819649696	1617
13.5869629383	1623
13.5920341015	1624
13.596996069	1623
13.6018819809	1624
13.6070101261	1627
13.6119060516	1629
13.6168570518	1635
13.6219780445	1643
13.6271169186	1647
13.6321680546	1646
13.6369979382	1648
13.6419680119	1654
13.6469070911	1662
13.6521520615	1667
13.6569781303	1684
13.662045002	1704
13.6672120094	1717
13.6721479893	1708
13.6769549847	1707
13.6820111275	1706
13.687032938	1676
13.6920759678	1635
13.6970050335	1626
13.7021169662	1634
13.7069470882	1640
13.7122180462	1640
13.7171320915	1641
13.7220070362	1639
13.7272031307	1628
13.7322540283	1625
13.7369909286	1621
13.7419979572	1620
13.747189045	1617
13.7521440983	1608
13.7570679188	1609
13.7622330189	1615
13.7672059536	1610
13.7721269131	1423
13.7772479057	1086
13.7820811272	823
13.7872340679	824
13.7920849323	1077
13.7969989777	1246
13.8019931316	1099
13.8068370819	1091
13.8119421005	1658
13.8168821335	2568
13.8221240044	2696
13.8273029327	1999
13.8320949078	1577
13.837223053	1644
13.8419599533	1729
13.8471989632	1670
13.8521010876	1600
13.8571240902	1598
13.862101078	1617
13.8672370911	1616
13.872079134	1605
13.8771529198	1596
13.882021904	1590
13.8873610497	1588
13.8921561241	1580
13.8970830441	1581
13.9020140171	1577
13.9071910381	1565
13.9123549461	1554
13.9172799587	1545
13.9220969677	1542
13.9271609783	1541
13.9322509766	1532
13.9371750355	1525
13.9421830177	1518
13.9473991394	1510
13.9522209167	1499
13.95707798	1482
13.9621999264	1475
13.967345953	1470
13.9721870422	1458
13.9773221016	1452
13.9823050499	1456
13.9872419834	1464
13.9922389984	1483
13.9973161221	1500
14.0024521351	1514
14.0075919628	1530
14.0126059055	1551
14.0173881054	1572
14.0223999023	1596
14.0274119377	1618
14.0324370861	1638
14.0373170376	1662
14.0426540375	1691
14.0475430489	1714
14.0525019169	1731
14.0574860573	1749
14.0626609325	1766
14.0678040981	1777
14.0728509426	1788
14.0778360367	1796
14.0827629566	1802
14.0879399776	1798
14.092881918	1803
14.0979609489	1814
14.1030879021	1810
14.1080749035	1804
14.1129391193	1797
14.1180789471	1795
14.1228809357	1788
14.1281189919	1782
14.1330749989	1774
14.1382169724	1763
14.1430690289	1757
14.1482830048	1749
14.1532120705	1734
14.1580190659	1728
14.16329813	1730
14.1685779095	1723
14.1732051373	1716
14.1782150269	1708
14.1833510399	1706
14.1884720325	1701
14.1932249069	1699
14.1984419823	1700
14.2033450603	1703
14.20835495	1707
14.2133219242	1700
14.2184939384	1698
14.2234249115	1702
14.2284710407	1709
14.2333900928	1705
14.2384369373	1699
14.2436039448	1706
14.2486181259	1711
14.2534520626	1708
14.2586810589	1703
14.2636890411	1704
14.2684679031	1709
14.2735629082	1708
14.2786209583	1706
14.2836449146	1705
14.2885110378	1712
14.2935209274	1712
14.2985360622	1708
14.3036670685	1711
14.3085451126	1721
14.31351614	1728
14.31854105	1737
14.3236601353	1746
14.3284950256	1764
14.3333489895	1766
14.338465929	1751
14.343667984	1748
14.3486790657	1747
14.3535470963	1714
14.358520031	1676
14.363546133	1669
14.3686330318	1680
14.3736259937	1689
14.3787801266	1688
14.383865118	1684
14.3885550499	1668
14.3934550285	1656
14.3985710144	1652
14.4035949707	1649
14.4085230827	1644
14.4135560989	1638
14.4185299873	1638
14.4236009121	1641
14.4286680222	1644
14.4336419106	1604
14.4387280941	1342
14.4439110756	985
14.4486501217	725
14.4535551071	770
14.4583909512	1066
14.463488102	1225
14.468724966	1109
14.4735810757	1288
14.4787609577	1951
14.4835550785	2716
14.4885139465	2578
14.4934940338	1903
14.498595953	1612
14.5036330223	1668
14.5085580349	1690
14.5133779049	1623
14.5184729099	1576
14.5234930515	1579
14.5285770893	1594
14.5334250927	1588
14.5386381149	1574
14.5436530113	1560
14.5485479832	1553
14.5535619259	1548
14.5586390495	1541
14.5636889935	1534
14.5687580109	1523
14.5736949444	1520
14.578774929	1522
14.584015131	1511
14.5888040066	1498
14.5937869549	1497
14.5990669727	1498
14.6038689613	1486
14.608825922	1473
14.6138279438	1463
14.6190950871	1456
14.6240060329	1449
14.6289329529	1441
14.6341481209	1433
14.6389079094	1428
14.6437289715	1433
14.6488940716	1444
14.6540000439	1451
14.6590340137	1462
14.6640489101	1484
14.6689689159	1501
14.6739809513	1519
14.6790909767	1543
14.6840250492	1565
14.6888329983	1583
14.6941280365	1603
14.698941946	1619
14.7038710117	1634
14.7089099884	1649
14.713848114	1662
14.7190380096	1670
14.7239480019	1680
14.7289500237	1693
14.7339301109	1700
14.7388720512	1706
14.7440099716	1709
14.7488911152	1717
14.7539200783	1720
14.7590589523	1718
14.7639601231	1716
14.7689471245	1712
14.77394104	1709
14.7791199684	1711
14.784263134	1705
14.7891891003	1696
14.7940940857	1690
14.7991559505	1683
14.8042631149	1674
14.8092601299	1671
14.8143780231	1664
14.8194069862	1647
14.824242115	1638
14.8292250633	1642
14.8344421387	1641
14.8393130302	1632
14.8444731236	1628
14.8494241238	1625
14.8545501232	1621
14.8595700264	1618
14.8646469116	1617
14.8696451187	1621
14.8747689724	1624
14.879734993	1625
14.8845469952	1622
14.8896229267	1619
14.8948359489	1625
14.8998849392	1626
14.9047520161	1625
14.9097309113	1628
14.9148879051	1628
14.9198980331	1631
14.9247829914	1634
14.9298219681	1637
14.934967041	1636
14.9397289753	1632
14.9447300434	1632
14.9498069286	1632
14.9546599388	1626
14.9597539902	1628
14.9645760059	1630
14.9695010185	1631
14.9747319221	1630
14.9797799587	1631
14.9846320152	1638
14.9897260666	1645
14.9948561192	1651
14.9999201298	1656
15.0047440529	1663
15.0096559525	1675
15.014578104	1691
15.0196881294	1684
15.0245769024	1681
15.02957201	1681
15.03470397	1655
15.0397729874	1617
15.0446119308	1605
15.0495119095	1613
15.054762125	1626
15.0597369671	1625
15.0648360252	1620
15.0700011253	1610
15.0748131275	1606
15.0797789097	1601
15.0849440098	1596
15.0897769928	1593
15.0949721336	1587
15.0998899937	1586
15.1046500206	1584
15.109662056	1583
15.1147930622	1565
15.1197769642	1402
15.1247529984	1063
15.1299259663	760
15.1346580982	602
15.1395990849	769
15.1445651054	1069
15.149739027	1127
15.1545960903	1136
15.1598451138	1631
15.1648499966	2441
15.1697030067	2675
15.1746759415	2106
15.1799399853	1660
15.1850240231	1657
15.1898739338	1688
15.1951169968	1612
15.2000150681	1546
15.2048459053	1544
15.2098450661	1555
15.2150900364	1554
15.2199850082	1541
15.2250640392	1524
15.230009079	1516
15.235022068	1514
15.2400569916	1506
15.2449541092	1500
15.2500970364	1499
15.255051136	1493
15.2600231171	1487
15.2649829388	1484
15.2698779106	1473
15.2749891281	1464
15.2800819874	1465
15.284965992	1459
15.290143013	1448
15.2949020863	1435
15.3001420498	1432
15.3049240112	1422
15.3101379871	1411
15.3151590824	1406
15.3203039169	1401
15.3250579834	1405
15.3300271034	1415
15.3352429867	1423
15.3401761055	1435
15.3451259136	1459
15.3501470089	1482
15.3552100658	1505
15.360227108	1530
15.3652961254	1553
15.3701999187	1573
15.3754520416	1587
15.380507946	1604
15.385422945	1624
15.3903489113	1635
15.3954870701	1644
15.4004950523	1651
15.4052000046	1661
15.4104149342	1671
15.4154989719	1681
15.4202849865	1691
15.4252109528	1697
15.4304420948	1698
15.4355230331	1699
15.440582037	1705
15.4453849792	1704
15.4504539967	1699
15.4555261135	1697
15.4605689049	1691
15.4655680656	1692
15.4707510471	1688
15.4756629467	1685
15.4805419445	1675
15.4855060577	1666
15.490694046	1655
15.4957659245	1649
15.5007400513	1642
15.5056159496	1639
15.5106160641	1634
15.5156259537	1626
15.5207149982	1618
15.5258591175	1612
15.5309329033	1611
15.5359261036	1613
15.5408520699	1613
15.5457041264	1611
15.5507919788	1603
15.555603981	1602
15.56062603	1608
15.5656979084	1612
15.5708539486	1610
15.5755901337	1613
15.580892086	1614
15.5858781338	1614
15.5909819603	1620
15.5957860947	1629
15.60079813	1627
15.6058359146	1616
15.6107230186	1616
15.615680933	1616
15.6206190586	1609
15.625658989	1608
15.6308779716	1612
15.6357569695	1622
15.6408650875	1619
15.6460530758	1606
15.6510460377	1606
15.6559901237	1610
15.6610250473	1608
15.6660010815	1606
15.6711111069	1597
15.6760709286	1595
15.6810729504	1604
15.6860120296	1612
15.6912589073	1609
15.6960999966	1614
15.7009890079	1615
15.7060039043	1615
15.7112250328	1619
15.7162549496	1630
15.7212400436	1652
15.7262699604	1664
15.7312691212	1650
15.7361490726	1650
15.7411000729	1646
15.7461020947	1606
15.7513821125	1571
15.7564609051	1571
15.7612659931	1580
15.7665610313	1584
15.7713959217	1578
15.7765290737	1578
15.7815790176	1575
15.7868330479	1564
15.7916300297	1560
15.7965860367	1555
15.8016309738	1547
15.8067939281	1536
15.8118629456	1542
15.8169670105	1552
15.8218281269	1538
15.8267629147	1441
15.8320219517	1143
15.8369460106	829
15.8420319557	640
15.8469901085	732
15.8518009186	948
15.8565571308	964
15.8613131046	835
15.8663659096	1190
15.871227026	2091
15.8764979839	2717
15.881346941	2297
15.886318922	1680
15.8912990093	1567
15.8964409828	1673
15.9014921188	1634
15.9065089226	1528
15.9114670753	1500
15.9163439274	1527
15.9211709499	1530
15.9262170792	1512
15.9312489033	1505
15.9363291264	1502
15.9412391186	1498
15.9463441372	1494
15.9512720108	1481
15.9563410282	1463
15.9613640308	1464
15.9664931297	1467
15.9714961052	1460
15.9763760567	1457
15.9811720848	1444
15.9863109589	1434
15.9914059639	1430
15.9964079857	1421
16.001251936	1416
16.006526947	1396
16.0111870766	1385
16.0162661076	1379
16.0211551189	1360
16.0263080597	1355
16.0315020084	1353
16.0363130569	1344
16.0413880348	1338
16.0462720394	1340
16.0514681339	1354
16.0563471317	1368
16.0613160133	1387
16.066587925	1402
16.0713469982	1418
16.0763459206	1438
16.0814230442	1464
16.0864059925	1483
16.0916500092	1510
16.0966620445	1544
16.1013710499	1570
16.1063599586	1583
16.111645937	1602
16.1167111397	1620
16.121571064	1638
16.1268899441	1667
16.132060051	1675
16.1368870735	1675
16.1417400837	1681
16.1469509602	1691
16.1517651081	1690
16.1568009853	1683
16.1619660854	1686
16.1667850018	1691
16.1717550755	1687
16.1768419743	1677
16.1820321083	1674
16.1872229576	1673
16.1922569275	1663
16.1969819069	1652
16.2019989491	1652
16.2071521282	1648
16.2122569084	1640
16.2169981003	1638
16.2220849991	1634
16.2270331383	1628
16.2321200371	1627
16.2372090816	1625
16.2421979904	1617
16.2473249435	1610
16.2523810863	1611
16.2572579384	1617
16.2620749474	1616
16.2672491074	1613
16.2721869946	1608
16.2772901058	1616
16.2822670937	1625
16.2874319553	1617
16.2924640179	1613
16.2973339558	1621
16.3024690151	1619
16.3076050282	1620
16.3125770092	1625
16.317538023	1629
16.3225440979	1630
16.3274669647	1628
16.3327069283	1629
16.3376729488	1631
16.3427689075	1628
16.347796917	1636
16.3526360989	1647
16.3577029705	1649
16.3629291058	1654
16.3677821159	1667
16.372699976	1679
16.3778009415	1700
16.3827240467	1708
16.3878369331	1689
16.3929150105	1688
16.3978919983	1673
16.4029619694	1632
16.4080140591	1604
16.4129071236	1610
16.4177911282	1624
16.4230871201	1626
16.4281001091	1617
16.4331870079	1611
16.4380469322	1605
16.443308115	1598
16.4481420517	1592
16.4533369541	1583
16.4581720829	1580
16.4632759094	1584
16.4683110714	1588
16.4731349945	1590
16.4781179428	1586
16.4832549095	1519
16.4880740643	1228
16.49319911	911
16.4980640411	756
16.5031740665	878
16.5079059601	1063
16.5127909184	979
16.5179510117	833
16.5228450298	1167
16.5278549194	2012
16.5327780247	2736
16.5376839638	2351
16.5427489281	1655
16.5479700565	1506
16.553098917	1637
16.55813694	1655
16.5631270409	1582
16.5680160522	1557
16.5728280544	1571
16.578040123	1577
16.5830309391	1564
16.5878450871	1548
16.592924118	1545
16.5981450081	1551
16.6031141281	1549
16.6082730293	1542
16.6130390167	1535
16.618103981	1529
16.6231200695	1528
16.628123045	1520
16.6328880787	1509
16.6379160881	1505
16.6431000233	1499
16.647974968	1491
16.6529870033	1481
16.6580331326	1468
16.6631159782	1451
16.6679809093	1440
16.6729319096	1431
16.6780679226	1423
16.6829640865	1413
16.688051939	1404
16.6930670738	1395
16.6981170177	1391
16.7031860352	1398
16.7083370686	1409
16.7133409977	1421
16.7184319496	1428
16.7231869698	1440
16.7282919884	1464
16.7333679199	1496
16.7382969856	1523
16.7435109615	1548
16.7485589981	1578
16.7533791065	1614
16.7583260536	1643
16.7635540962	1669
16.7684440613	1694
16.7734599113	1719
16.7786231041	1745
16.7834160328	1761
16.7884421349	1766
16.7933719158	1780
16.7985060215	1790
16.8035070896	1793
16.8084931374	1795
16.813532114	1793
16.8186359406	1790
16.8235549927	1782
16.828660965	1776
16.8336179256	1769
16.8386969566	1761
16.8438260555	1755
16.8486909866	1756
16.8535969257	1750
16.858809948	1737
16.8638241291	1737
16.8687210083	1734
16.8737390041	1721
16.8788380623	1720
16.883754015	1719
16.8887720108	1713
16.8936870098	1709
16.8990371227	1701
16.9040439129	1697
16.9087440968	1706
16.9136970043	1705
16.9188621044	1700
16.9240291119	1695
16.9289441109	1697
16.9340639114	1700
16.9389820099	1696
16.943967104	1697
16.9491260052	1707
16.9538960457	1711
16.9590759277	1705
16.9641799927	1708
16.9691410065	1710
16.9740710258	1706
16.9790630341	1705
16.9842760563	1705
16.9892969131	1706
16.9941160679	1710
16.9992990494	1709
17.0040941238	1709
17.0091209412	1714
17.0142149925	1716
17.019135952	1716
17.0242171288	1718
17.0291700363	1721
17.0340919495	1734
17.03906703	1746
17.0442941189	1768
17.0491530895	1772
17.0540869236	1755
17.0594251156	1749
17.0644240379	1740
17.0692019463	1705
17.0742189884	1674
17.0794169903	1676
17.0844070911	1680
17.0893199444	1676
17.0944490433	1670
17.0993421078	1673
17.104352951	1667
17.1093261242	1661
17.1144330502	1652
17.1194279194	1645
17.1244709492	1640
17.1293439865	1640
17.1342930794	1643
17.139508009	1639
17.1444160938	1638
17.1492891312	1577
17.1544840336	1284
17.1593110561	914
17.1642670631	734
17.1691460609	906
17.1740529537	1232
17.1792209148	1289
17.1842780113	1168
17.1892409325	1375
17.1941540241	1994
17.1991901398	2721
17.2040500641	2512
17.2090890408	1826
17.214040041	1547
17.2191729546	1612
17.2241859436	1668
17.2291600704	1627
17.2341890335	1589
17.2393829823	1589
17.2444829941	1596
17.2493391037	1600
17.2542691231	1584
17.2592940331	1569
17.2644300461	1568
17.2693359852	1565
17.2745411396	1554
17.2796220779	1546
17.2844009399	1543
17.2893941402	1536
17.2945299149	1527
17.2995390892	1525
17.304708004	1517
17.3094670773	1502
17.3143949509	1493
17.31945014	1484
17.3245520592	1476
17.3295121193	1469
17.3346750736	1459
17.3396940231	1444
17.3447229862	1430
17.3495531082	1420
17.3548660278	1424
17.3598840237	1428
17.3649179935	1427
17.3700211048	1432
17.3750190735	1446
17.3799021244	1461
17.3848950863	1477
17.3897080421	1495
17.3949570656	1518
17.4000370502	1552
17.404966116	1570
17.4099569321	1589
17.4150090218	1617
17.4200549126	1641
17.4252040386	1663
17.4301319122	1677
17.4354460239	1693
17.440212965	1707
17.4451971054	1719
17.4504089355	1728
17.4555330276	1733
17.4605550766	1738
17.4654889107	1749
17.4703509808	1750
17.4754030704	1751
17.4805579185	1753
17.4855029583	1752
17.4907200336	1743
17.4957489967	1740
17.5004780293	1736
17.5054869652	1724
17.5106499195	1717
17.5155289173	1711
17.5204899311	1705
17.5255289078	1700
17.530714035	1693
17.5356659889	1685
17.5406520367	1683
17.5456519127	1676
17.5508301258	1670
17.5558171272	1667
17.5606970787	1666
17.5656239986	1659
17.5706419945	1657
17.575715065	1656
17.5804879665	1656
17.5854759216	1654
17.5907549858	1652
17.5955359936	1660
17.6004269123	1663
17.6054000854	1661
17.6106119156	1660
17.6154229641	1658
17.6206541061	1653
17.6254720688	1653
17.6305201054	1660
17.6356110573	1664
17.6406750679	1658
17.6457059383	1654
17.6507050991	1655
17.6559960842	1655
17.6607439518	1656
17.6659100056	1655
17.6708400249	1659
17.6759710312	1660
17.680891037	1661
17.6860449314	1660
17.6908419132	1665
17.6959969997	1669
17.7010309696	1673
17.7061479092	1678
17.7111840248	1689
17.7160170078	1704
17.7210459709	1693
17.7260389328	1691
17.7312150002	1696
17.7360639572	1671
17.7411620617	1626
17.7461030483	1608
17.7510969639	1616
17.7560341358	1630
17.7612440586	1625
17.7661430836	1620
17.7713630199	1621
17.7763440609	1614
17.7812280655	1600
17.7859950066	1594
17.7911629677	1588
17.7962129116	1586
17.8012571335	1586
17.8061680794	1588
17.8112850189	1593
17.8160231113	1580
17.8211209774	1418
17.8262689114	1080
17.8313560486	762
17.8363029957	639
17.840970993	853
17.8457889557	1143
17.8508570194	1139
17.855850935	1160
17.8608460426	1613
17.8658471107	2388
17.8710210323	2699
17.8758471012	2159
17.8808150291	1644
17.885890007	1587
17.8908259869	1635
17.8959860802	1609
17.9008870125	1551
17.905919075	1537
17.9107570648	1544
17.9159281254	1539
17.920771122	1528
17.9258189201	1517
17.9309310913	1516
17.9358320236	1515
17.9408431053	1503
17.9461379051	1494
17.9512541294	1488
17.9562439919	1486
17.9612550735	1484
17.9660620689	1478
17.9710259438	1474
17.9762220383	1472
17.9811589718	1465
17.9860489368	1456
17.9912929535	1437
17.9962580204	1425
18.001003027	1425
18.0058960915	1417
18.0109410286	1405
18.0159170628	1400
18.0209219456	1401
18.0259740353	1403
18.0309069157	1407
18.0359709263	1416
18.040915966	1426
18.0458879471	1441
18.0511541367	1461
18.0561800003	1482
18.061029911	1506
18.0659589767	1532
18.071267128	1556
18.0762131214	1578
18.0811319351	1588
18.0861439705	1601
18.0911169052	1621
18.0961079597	1636
18.1010930538	1649
18.1060640812	1652
18.1112210751	1661
18.1161179543	1673
18.121201992	1681
18.1261980534	1685
18.131467104	1693
18.1363379955	1700
18.1414120197	1702
18.1463420391	1702
18.1514129639	1701
18.1562371254	1696
18.161303997	1694
18.1665360928	1691
18.1717789173	1682
18.1767790318	1672
18.1815419197	1667
18.1866369247	1666
18.1916351318	1653
18.196641922	1650
18.201595068	1642
18.2067599297	1639
18.2116830349	1636
18.2166030407	1631
18.2215559483	1621
18.226804018	1618
18.2317380905	1614
18.2365949154	1618
18.2416269779	1618
18.2468280792	1614
18.2516729832	1613
18.2564740181	1613
18.26156497	1612
18.2667570114	1618
18.2717840672	1614
18.276663065	1615
18.2816560268	1622
18.2866699696	1627
18.2918760777	1627
18.2968571186	1627
18.3018419743	1628
18.3069620132	1629
18.3117799759	1626
18.3167920113	1628
18.322040081	1625
18.3270280361	1629
18.3319180012	1631
18.3369550705	1630
18.3418500423	1623
18.3468580246	1628
18.3518381119	1628
18.356967926	1622
18.3620741367	1626
18.3670380116	1637
18.3718750477	1644
18.3768250942	1647
18.3818089962	1660
18.3870170116	1673
18.3920860291	1681
18.3969950676	1670
18.40209198	1669
18.4068570137	1664
18.4120140076	1629
18.4171330929	1595
18.4222390652	1593
18.4273450375	1606
18.4322829247	1614
18.4372029305	1605
18.4422740936	1600
18.4473910332	1602
18.4524469376	1593
18.4574711323	1586
18.4626560211	1581
18.4674620628	1578
18.4724681377	1577
18.4774849415	1573
18.4825220108	1573
18.4877541065	1564
18.4925830364	1521
18.497494936	1289
18.5025660992	947
18.5077331066	672
18.5124690533	627
18.5172169209	884
18.5222001076	1137
18.5273549557	1122
18.5322439671	1267
18.5371010303	1891
18.5423529148	2631
18.5475549698	2533
18.5524859428	1919
18.5573511124	1612
18.5625209808	1648
18.5677211285	1653
18.5726919174	1584
18.5775020123	1539
18.5828309059	1537
18.5878679752	1547
18.5926821232	1534
18.5977809429	1522
18.6027140617	1517
18.6078910828	1513
18.6128799915	1509
18.6177361012	1507
18.622781992	1499
18.6276450157	1486
18.6328270435	1483
18.6376509666	1484
18.64281106	1474
18.6479430199	1465
18.6526489258	1460
18.6575300694	1450
18.6628611088	1442
18.6677899361	1443
18.6729381084	1430
18.677989006	1419
18.6827740669	1412
18.6878740788	1410
18.6929790974	1404
18.6980559826	1401
18.7030949593	1406
18.7083330154	1410
18.7131531239	1424
18.7181921005	1441
18.723115921	1457
18.7282271385	1478
18.7331190109	1497
18.7380049229	1525
18.743295908	1552
18.7482500076	1574
18.7533140182	1591
18.7582919598	1605
18.7633090019	1616
18.7683560848	1621
18.7732930183	1630
18.778190136	1644
18.7831909657	1653
18.7882909775	1663
18.793389082	1667
18.7985010147	1676
18.8036260605	1678
18.8084161282	1681
18.8134229183	1684
18.8183479309	1684
18.8236310482	1682
18.8284859657	1684
18.8335840702	1680
18.8385999203	1676
18.8435089588	1675
18.8485810757	1667
18.8534879684	1657
18.8587369919	1649
18.8638119698	1639
18.8688359261	1635
18.8736310005	1632
18.8788480759	1626
18.8838939667	1622
18.8886320591	1612
18.8936181068	1605
18.89904809	1607
18.903742075	1602
18.9089550972	1591
18.9138259888	1592
18.9188239574	1596
18.9239959717	1594
18.9289929867	1597
18.9338769913	1594
18.9390399456	1595
18.9440310001	1596
18.9488930702	1602
18.9540691376	1607
18.9589629173	1609
18.9639279842	1606
18.9687719345	1607
18.9736909866	1611
18.9790120125	1616
18.9839839935	1622
18.9890110493	1616
18.9939379692	1612
18.9988510609	1616
19.00385499	1619
19.0088620186	1618
19.0140581131	1613
19.0191040039	1615
19.0238690376	1622
19.0288829803	1624
19.0341360569	1622
19.0389070511	1621
19.043956995	1626
19.0489630699	1631
19.054058075	1640
19.0590181351	1648
19.0642440319	1663
19.0690290928	1670
19.0740461349	1661
19.0793681145	1673
19.0843389034	1664
19.0891010761	1620
19.0940139294	1584
19.0991959572	1587
19.1041529179	1603
19.1092660427	1614
19.1141140461	1608
19.1190719604	1601
19.1241269112	1595
19.1291160583	1591
19.1342129707	1584
19.1393649578	1577
19.1441791058	1570
19.1490941048	1572
19.1541481018	1571
19.159279108	1564
19.1643331051	1556
19.1691660881	1523
19.1742460728	1298
19.1791229248	972
19.1840519905	695
19.1890001297	622
19.1938700676	853
19.19885993	1090
19.2040100098	1059
19.20896101	1214
19.2136189938	1860
19.2187740803	2628
19.2240149975	2533
19.2290229797	1901
19.2340800762	1606
19.2391459942	1650
19.2439141273	1643
19.2489659786	1571
19.2540841103	1526
19.2591021061	1528
19.2643101215	1539
19.2691190243	1526
19.2740139961	1509
19.2788760662	1501
19.2840869427	1498
19.2887921333	1492
19.2938559055	1490
19.2990710735	1481
19.3038320541	1473
19.308795929	1466
19.3140339851	1464
19.3189239502	1455
19.3239610195	1446
19.3288941383	1446
19.333894968	1445
19.33893013	1431
19.344135046	1419
19.3490180969	1415
19.3539330959	1406
19.35916996	1389
19.3639559746	1380
19.3688669205	1376
19.3740401268	1375
19.3790669441	1381
19.3839049339	1380
19.3890011311	1379
19.3940060139	1388
19.3989160061	1408
19.4039599895	1426
19.4089550972	1446
19.414000988	1468
19.4189970493	1491
19.4242300987	1507
19.4291191101	1525
19.4340720177	1547
19.4393389225	1565
19.4443650246	1581
19.4492630959	1600
19.4543089867	1613
19.4592580795	1621
19.4642250538	1635
19.4691040516	1646
19.4741101265	1653
19.4792571068	1664
19.4843170643	1671
19.4891870022	1674
19.4941589832	1676
19.4993839264	1682
19.5043129921	1677
19.5092859268	1672
19.5141880512	1670
19.5193829536	1664
19.5242791176	1659
19.5293769836	1650
19.5343339443	1643
19.5395209789	1640
19.5445239544	1634
19.5494511127	1631
19.5545639992	1624
19.559440136	1616
19.5645699501	1613
19.5694210529	1609
19.5747179985	1603
19.5797219276	1601
19.5845470428	1606
19.5894579887	1601
19.5945920944	1597
19.5994920731	1594
19.6045339108	1590
19.6096019745	1587
19.6145551205	1591
19.6196420193	1598
19.6248509884	1607
19.6300189495	1612
19.6348559856	1606
19.6400549412	1600
19.6449921131	1608
19.6498630047	1616
19.6551511288	1612
19.660061121	1609
19.6650841236	1612
19.6698040962	1616
19.6749789715	1617
19.679983139	1614
19.684994936	1621
19.6898880005	1619
19.6950490475	1623
19.7001459599	1630
19.7050831318	1631
19.7101011276	1639
19.7150020599	1655
19.7201430798	1666
19.7251009941	1683
19.7301371098	1680
19.7352459431	1665
19.7400519848	1671
19.7450311184	1666
19.749958992	1633
19.7551591396	1602
19.7602219582	1600
19.7651360035	1614
19.7701900005	1622
19.7751879692	1615
19.7804100513	1608
19.7852110863	1598
19.7905590534	1597
19.7953109741	1592
19.8003029823	1586
19.8053779602	1579
19.8104639053	1576
19.8155419827	1578
19.8204069138	1587
19.8254721165	1600
19.8305060863	1523
19.8355751038	1237
19.8407161236	922
19.8455209732	755
19.8502960205	872
19.8554160595	1048
19.8604059219	974
19.8650360107	882
19.8699100018	1296
19.8752379417	2144
19.880147934	2751
19.8850080967	2347
19.8900539875	1716
19.8949439526	1568
19.8999779224	1657
19.9050171375	1654
19.9099400043	1582
19.915184021	1557
19.9201850891	1571
19.9251599312	1578
19.9301021099	1569
19.9351630211	1554
19.9403879642	1548
19.9451899529	1550
19.9503040314	1551
19.9553251266	1543
19.9602479935	1531
19.9652841091	1528
19.9701471329	1528
19.9753661156	1521
19.980287075	1519
19.9853110313	1514
19.9903540611	1500
19.9955720901	1491
20.0004079342	1491
20.0054650307	1485
20.0105879307	1470
20.0155799389	1457
20.0203781128	1447
20.0252969265	1439
20.0305049419	1435
20.0355079174	1433
20.0405819416	1429
20.0455091	1425
20.0505039692	1434
20.055398941	1449
20.0605499744	1464
20.0654289722	1484
20.0705780983	1506
20.0755720139	1531
20.0804579258	1559
20.0854511261	1580
20.0906300545	1590
20.0956909657	1612
20.1005680561	1638
20.1056001186	1658
20.1108429432	1680
20.1156511307	1699
20.1206400394	1714
20.1256289482	1728
20.130863905	1746
20.135821104	1755
20.1409900188	1766
20.1456100941	1768
20.1508591175	1768
20.1560130119	1768
20.1608989239	1770
20.1659259796	1768
20.1710109711	1762
20.1758110523	1759
20.1807379723	1756
20.1858539581	1747
20.1909530163	1737
20.1960709095	1733
20.2009780407	1732
20.2059879303	1722
20.2109680176	1713
20.2162110806	1710
20.2211430073	1706
20.226129055	1702
20.2313489914	1699
20.2363960743	1697
20.241202116	1690
20.2461929321	1683
20.2511401176	1687
20.2563209534	1686
20.2611820698	1682
20.266094923	1679
20.2711341381	1681
20.2762589455	1690
20.2811329365	1696
20.2861180305	1688
20.2913630009	1689
20.2964811325	1696
20.3012590408	1699
20.3061490059	1699
20.3113880157	1701
20.3162610531	1699
20.3213031292	1699
20.3262591362	1699
20.3313009739	1702
20.336302042	1703
20.3413259983	1697
20.3464851379	1694
20.351375103	1700
20.3565621376	1699
20.3614170551	1701
20.3663449287	1700
20.3716239929	1703
20.3763899803	1702
20.3814809322	1702
20.3866491318	1706
20.3914780617	1707
20.3963859081	1712
20.4013199806	1718
20.4065210819	1729
20.4115841389	1747
20.4165630341	1763
20.4215009212	1746
20.4264609814	1741
20.4315719604	1739
20.43643713	1710
20.441450119	1674
20.4465711117	1666
20.4518299103	1672
20.4565889835	1677
20.4614830017	1671
20.4664390087	1670
20.4716799259	1664
20.4766750336	1655
20.4815409184	1652
20.4865109921	1644
20.4915621281	1636
20.4966740608	1636
20.5015060902	1640
20.5067980289	1640
20.5118300915	1643
20.5166919231	1617
20.5217010975	1365
20.5268831253	1009
20.5318739414	740
20.5366580486	792
20.5415520668	1096
20.5464720726	1232
20.5514810085	1137
20.5563719273	1357
20.5614509583	1988
20.5664029121	2707
20.5717089176	2575
20.5767059326	1917
20.5816121101	1604
20.5865731239	1640
20.5918569565	1669
20.5967800617	1623
20.6018280983	1593
20.6070029736	1593
20.6118381023	1595
20.6167359352	1585
20.6219260693	1575
20.6269891262	1568
20.6320259571	1558
20.6368370056	1550
20.6418690681	1542
20.6468660831	1539
20.6519739628	1534
20.6568801403	1531
20.662060976	1529
20.6673021317	1520
20.6723999977	1511
20.6772110462	1497
20.6822490692	1496
20.6872839928	1492
20.6922419071	1480
20.6971371174	1467
20.7022600174	1461
20.7071540356	1451
20.7124140263	1441
20.7173199654	1436
20.7225699425	1437
20.7276329994	1436
20.7325940132	1439
20.7374179363	1440
20.7424259186	1456
20.7475950718	1473
20.7525129318	1497
20.7575700283	1516
20.7628080845	1542
20.7675080299	1563
20.7725119591	1588
20.7775409222	1609
20.7826890945	1625
20.7876701355	1637
20.7925920486	1644
20.7973930836	1665
20.8024320602	1683
20.8074679375	1694
20.8123669624	1704
20.8174040318	1708
20.822551012	1710
20.8275489807	1719
20.832408905	1725
20.8373990059	1730
20.8425679207	1732
20.8476040363	1735
20.8525800705	1737
20.8575310707	1733
20.8625190258	1724
20.8675169945	1716
20.8725481033	1713
20.8776350021	1707
20.8828909397	1700
20.8878860474	1686
20.8927810192	1681
20.8976349831	1678
20.9027209282	1675
20.9078729153	1662
20.9128029346	1660
20.917812109	1661
20.9227979183	1657
20.9279649258	1655
20.9329259396	1653
20.937926054	1648
20.9431579113	1642
20.9480941296	1642
20.9532389641	1640
20.9581160545	1641
20.9632339478	1643
20.9681239128	1648
20.9731171131	1647
20.978012085	1652
20.9832639694	1657
20.9881470203	1653
20.9932289124	1656
20.9980370998	1660
21.0031290054	1663
21.0081140995	1658
21.0129721165	1658
21.0181050301	1658
21.0230100155	1655
21.0281870365	1658
21.0329899788	1657
21.03820014	1656
21.0431780815	1662
21.0480220318	1664
21.052834034	1660
21.0580129623	1654
21.0630660057	1662
21.0679960251	1668
21.0730359554	1670
21.0781581402	1670
21.0830039978	1672
21.0881941319	1672
21.0930409431	1684
21.098097086	1706
21.103208065	1720
21.1082060337	1708
21.1130120754	1699
21.1179599762	1707
21.1230959892	1692
21.1280720234	1650
21.1330010891	1629
21.1381559372	1633
21.1431150436	1644
21.1481001377	1643
21.1529381275	1637
21.1579580307	1632
21.1631519794	1625
21.1681821346	1622
21.1728689671	1612
21.1779499054	1604
21.1829669476	1604
21.1880850792	1600
21.1929609776	1593
21.1981229782	1607
21.2029359341	1609
21.2078669071	1486
21.2129259109	1177
21.2179200649	853
21.222990036	663
21.2278671265	812
21.232765913	1128
21.237582922	1183
21.2424039841	1172
21.2475140095	1593
21.2526581287	2353
21.2575790882	2737
21.2625529766	2254
21.2675979137	1708
21.272758007	1608
21.2778561115	1653
21.2826991081	1632
21.2878761292	1575
21.2928740978	1555
21.2975890636	1565
21.3025989532	1567
21.3077681065	1553
21.3127379417	1536
21.3176219463	1532
21.3227670193	1527
21.3276209831	1525
21.3326449394	1521
21.3378911018	1513
21.3428599834	1509
21.3479590416	1512
21.3527839184	1509
21.3578579426	1495
21.3626909256	1485
21.3678400517	1484
21.3727610111	1478
21.3777890205	1463
21.3827381134	1455
21.3876121044	1449
21.3926670551	1443
21.3977799416	1433
21.4027891159	1428
21.4076750278	1428
21.4126451015	1430
21.4178059101	1435
21.4226920605	1443
21.4278719425	1455
21.4327220917	1476
21.4377889633	1490
21.4430091381	1508
21.4480130672	1536
21.4527699947	1562
21.4575340748	1582
21.4627139568	1605
21.4676289558	1623
21.4727051258	1633
21.477643013	1648
21.4826140404	1658
21.4875569344	1663
21.492784977	1669
21.4976289272	1675
21.5028600693	1686
21.5078959465	1690
21.5127050877	1695
21.5176339149	1699
21.5228559971	1707
21.5278859138	1708
21.5327029228	1707
21.5377259254	1703
21.5427930355	1699
21.5476241112	1698
21.5525670052	1695
21.557682991	1686
21.5627701283	1682
21.5678889751	1678
21.5729269981	1671
21.577835083	1667
21.5828289986	1658
21.5879020691	1650
21.5929369926	1642
21.5979831219	1637
21.6029820442	1637
21.6077980995	1635
21.6128621101	1628
21.6178939342	1619
21.6229879856	1617
21.6280460358	1619
21.6330289841	1619
21.6381270885	1620
21.6429839134	1622
21.6480801105	1628
21.6528539658	1627
21.6579940319	1620
21.6630349159	1622
21.6680569649	1625
21.6728289127	1628
21.6779129505	1630
21.6828150749	1636
21.688076973	1633
21.6929819584	1625
21.6982049942	1628
21.7029781342	1631
21.7079920769	1629
21.7131049633	1632
21.7179689407	1635
21.7229859829	1635
21.728151083	1634
21.7329659462	1639
21.7379209995	1636
21.7431519032	1635
21.7479159832	1633
21.7529759407	1638
21.7579379082	1641
21.7631371021	1640
21.7680830956	1641
21.7729649544	1640
21.7779400349	1644
21.7830131054	1652
21.7882270813	1661
21.7931380272	1680
21.7980980873	1685
21.8032929897	1673
21.8083040714	1675
21.8132309914	1662
21.8180439472	1625
21.8233110905	1598
21.8280880451	1592
21.8330669403	1609
21.8383691311	1614
21.8433740139	1609
21.8482079506	1604
21.8532109261	1594
21.8580849171	1589
21.8632059097	1591
21.8682289124	1585
21.873306036	1581
21.8784799576	1580
21.8835020065	1581
21.8883290291	1579
21.8932960033	1573
21.8983170986	1483
21.9036040306	1186
21.9085309505	869
21.9132630825	664
21.9182620049	759
21.9233391285	1042
21.9283919334	1114
21.9332489967	1085
21.9383630753	1495
21.9434349537	2287
21.9483270645	2716
21.9532461166	2244
21.9583909512	1696
21.9634110928	1607
21.9685480595	1661
21.9733679295	1616
21.9785380363	1545
21.9834051132	1528
21.9883580208	1543
21.9933569431	1543
21.9983639717	1528
22.0036289692	1514
22.0086259842	1506
22.0140960217	1504
22.0184690952	1497
22.0237650871	1490
22.0287950039	1483
22.0336670876	1484
22.0388400555	1485
22.0436880589	1481
22.0486581326	1467
22.0538339615	1455
22.058809042	1449
22.0637500286	1449
22.0687890053	1438
22.0736191273	1428
22.078551054	1425
22.0835840702	1421
22.0886819363	1412
22.0936219692	1401
22.0988609791	1392
22.1038169861	1390
22.1086990833	1398
22.1136031151	1409
22.1188819408	1417
22.1238479614	1426
22.1286659241	1444
22.1336219311	1460
22.1386649609	1484
22.1437990665	1504
22.1486520767	1531
22.1537809372	1555
22.1590149403	1571
22.1638729572	1584
22.1686480045	1597
22.1736090183	1616
22.1787550449	1632
22.1836359501	1641
22.1888110638	1654
22.1936349869	1664
22.1986529827	1677
22.2036089897	1683
22.2090039253	1683
22.2138729095	1689
22.2190611362	1691
22.2239010334	1695
22.2288939953	1700
22.2338731289	1698
22.2390959263	1698
22.2441389561	1691
22.249037981	1684
22.2539670467	1676
22.2592029572	1671
22.2640209198	1665
22.2689809799	1657
22.2739470005	1651
22.2791359425	1646
22.284209013	1641
22.2892019749	1637
22.294011116	1628
22.2991719246	1626
22.3041460514	1625
22.309114933	1626
22.3140940666	1624
22.3191740513	1617
22.3241610527	1618
22.3291621208	1621
22.3342111111	1618
22.3391909599	1612
22.3445019722	1612
22.3492369652	1618
22.3541369438	1623
22.3590939045	1622
22.3642771244	1626
22.3691279888	1628
22.3741009235	1625
22.3793580532	1623
22.3843119144	1623
22.389056921	1629
22.3939990997	1633
22.398982048	1634
22.4042980671	1625
22.4092979431	1627
22.4141969681	1630
22.4190349579	1630
22.424202919	1632
22.4291090965	1633
22.4341440201	1635
22.4390721321	1636
22.4440529346	1634
22.4489579201	1637
22.4539289474	1636
22.4591720104	1641
22.4642550945	1648
22.4689331055	1654
22.4742231369	1659
22.4789919853	1679
22.4839570522	1703
22.4890730381	1684
22.4940919876	1675
22.4989631176	1677
22.5040440559	1649
22.509155035	1611
22.5140140057	1602
22.5191130638	1615
22.5241589546	1626
22.5291090012	1622
22.5339910984	1616
22.5390720367	1611
22.5439670086	1604
22.5488491058	1600
22.5540149212	1594
22.559180975	1581
22.5641160011	1582
22.5691850185	1587
22.5739769936	1588
22.5789449215	1593
22.584056139	1577
22.588999033	1355
22.5939319134	1017
22.5990591049	750
22.603771925	753
22.6087501049	1013
22.6137111187	1146
22.6190059185	1046
22.6240179539	1246
22.6288380623	1918
22.6338911057	2672
22.6387579441	2547
22.6439659595	1886
22.648706913	1571
22.6540410519	1610
22.6590070724	1638
22.6637499332	1586
22.6685581207	1544
22.673625946	1549
22.678839922	1555
22.683879137	1554
22.6886720657	1544
22.693723917	1530
22.6987130642	1520
22.7035861015	1512
22.7086341381	1511
22.7136459351	1507
22.7188370228	1502
22.7236881256	1502
22.7287039757	1495
22.7337241173	1490
22.738929987	1479
22.7440021038	1469
22.7488501072	1464
22.7538399696	1455
22.7586610317	1449
22.7636709213	1444
22.7686300278	1434
22.7735619545	1425
22.7787671089	1417
22.7837040424	1410
22.7885670662	1407
22.7934799194	1410
22.7985050678	1414
22.8036820889	1422
22.8086540699	1429
22.813585043	1443
22.8187959194	1464
22.8235089779	1487
22.8286240101	1512
22.8334810734	1532
22.8387410641	1553
22.8438210487	1574
22.8486459255	1596
22.8536369801	1613
22.8587939739	1631
22.8635959625	1644
22.8686270714	1652
22.8735430241	1667
22.8786919117	1684
22.883644104	1700
22.8886649609	1708
22.8939659595	1706
22.8986940384	1708
22.9038460255	1715
22.9088480473	1719
22.9135799408	1728
22.9186041355	1722
22.9238131046	1718
22.9287800789	1715
22.9336481094	1708
22.9389989376	1700
22.9438209534	1697
22.948693037	1691
22.9538290501	1682
22.9587509632	1673
22.9637200832	1665
22.9687969685	1661
22.9738259315	1655
22.9787740707	1648
22.9839849472	1651
22.9888930321	1648
22.9939661026	1636
22.9990060329	1635
23.0040071011	1637
23.008810997	1632
23.0138299465	1631
23.0189061165	1633
23.0238759518	1632
23.0288929939	1631
23.034083128	1633
23.0389449596	1633
23.043915987	1635
23.0489249229	1635
23.0539929867	1638
23.0591650009	1645
23.0641260147	1650
23.0691030025	1648
23.0739219189	1642
23.0790400505	1643
23.0841610432	1653
23.0889530182	1655
23.0940740108	1651
23.0990560055	1653
23.1041080952	1654
23.1090939045	1651
23.1142430305	1649
23.1194601059	1650
23.1245551109	1647
23.1293981075	1643
23.1345100403	1644
23.1395039558	1654
23.1445031166	1640
23.1494050026	1638
23.1546840668	1640
23.1596500874	1642
23.1645059586	1642
23.1695640087	1648
23.1746940613	1654
23.1797380447	1654
23.1846489906	1655
23.1896910667	1666
23.194963932	1688
23.1998500824	1693
23.2048940659	1676
23.2099750042	1682
23.214867115	1676
23.2199721336	1638
23.2248380184	1612
23.2298541069	1614
23.2349281311	1626
23.2399439812	1628
23.2449319363	1621
23.2500460148	1618
23.254971981	1614
23.2598650455	1605
23.2647900581	1601
23.2699329853	1595
23.2749490738	1593
23.2800550461	1591
23.2850780487	1590
23.2897911072	1586
23.2949941158	1587
23.2998991013	1538
23.3048319817	1280
23.3099250793	941
23.3149549961	679
23.319658041	690
23.3244459629	1001
23.3295669556	1213
23.3346381187	1163
23.3397359848	1367
23.3444781303	1992
23.3496539593	2679
23.3546140194	2511
23.3598089218	1878
23.3644590378	1595
23.369560957	1624
23.3748090267	1630
23.3798229694	1577
23.3846819401	1546
23.3896090984	1547
23.394630909	1551
23.3998811245	1541
23.4049079418	1527
23.409799099	1521
23.4147090912	1515
23.4199159145	1507
23.4247169495	1502
23.4295759201	1501
23.4348199368	1500
23.4397571087	1494
23.4446239471	1485
23.4496381283	1482
23.45499897	1471
23.4600090981	1462
23.4648320675	1458
23.4699149132	1453
23.4748170376	1445
23.4797940254	1432
23.484844923	1424
23.4900479317	1418
23.4951169491	1407
23.5000510216	1408
23.5051159859	1405
23.5101060867	1405
23.5151259899	1412
23.5201420784	1422
23.5250959396	1434
23.5301039219	1456
23.535284996	1479
23.5401639938	1495
23.5452899933	1520
23.550385952	1549
23.555505991	1572
23.5605010986	1595
23.5652430058	1612
23.5702109337	1621
23.5752959251	1633
23.5802500248	1640
23.5853669643	1648
23.5903110504	1657
23.5953669548	1667
23.6002650261	1673
23.6052119732	1675
23.6102719307	1686
23.6153149605	1691
23.6204869747	1697
23.6254079342	1695
23.6303970814	1695
23.6353681087	1698
23.6405220032	1693
23.6454310417	1688
23.6506209373	1687
23.6556489468	1674
23.6605241299	1667
23.6655111313	1664
23.6706860065	1661
23.6757490635	1655
23.6806061268	1647
23.6856770515	1639
23.6908171177	1632
23.6957321167	1627
23.7008199692	1621
23.7057309151	1621
23.7109251022	1614
23.715939045	1610
23.7210741043	1612
23.725894928	1614
23.7308130264	1613
23.7360069752	1609
23.7409090996	1607
23.746119976	1611
23.7512819767	1615
23.7561309338	1619
23.7610731125	1619
23.7660160065	1625
23.7711689472	1627
23.7762579918	1628
23.7811341286	1628
23.7860860825	1630
23.7911031246	1628
23.7961699963	1632
23.8012781143	1642
23.8062679768	1640
23.811398983	1634
23.8162209988	1633
23.8212051392	1639
23.8261489868	1640
23.8311059475	1638
23.8363649845	1645
23.8412649632	1653
23.8463499546	1662
23.8512511253	1670
23.856415987	1676
23.8612689972	1691
23.8663599491	1693
23.8714139462	1685
23.8764181137	1688
23.8813230991	1679
23.886275053	1642
23.8913919926	1608
23.896474123	1608
23.9013020992	1628
23.9063251019	1637
23.9112050533	1628
23.9161450863	1622
23.9213011265	1620
23.9263811111	1609
23.9312911034	1602
23.9364509583	1599
23.9412510395	1592
23.9463419914	1587
23.9513731003	1590
23.9564211369	1591
23.9613311291	1583
23.9664990902	1538
23.971282959	1296
23.9762639999	971
23.9810891151	714
23.9860780239	650
23.9910969734	886
23.9959950447	1140
24.0008559227	1160
24.0058460236	1333
24.0109899044	1943
24.016067028	2652
24.0210950375	2551
24.0260260105	1946
24.0310881138	1632
24.0359539986	1653
24.0408871174	1648
24.0459349155	1580
24.0508830547	1541
24.0559301376	1537
24.0607500076	1542
24.0657861233	1540
24.0707559586	1526
24.0758681297	1517
24.0807189941	1515
24.0860369205	1513
24.0910711288	1503
24.0960280895	1493
24.1008839607	1496
24.1059670448	1494
24.111135006	1483
24.116106987	1478
24.1210579872	1470
24.1261501312	1464
24.1310799122	1456
24.1361029148	1449
24.1410701275	1441
24.1460289955	1438
24.1512389183	1433
24.1562950611	1424
24.1612429619	1416
24.1662220955	1411
24.1714401245	1408
24.1763949394	1412
24.1813709736	1421
24.1863210201	1433
24.1913280487	1447
24.1964759827	1468
24.2013731003	1497
24.2065961361	1518
24.2117080688	1541
24.2167029381	1569
24.2216310501	1594
24.2266540527	1607
24.2316579819	1615
24.2368249893	1626
24.2418649197	1632
24.247040987	1641
24.2518811226	1649
24.256870985	1656
24.2619919777	1662
24.2670459747	1671
24.2721920013	1677
24.2771310806	1682
24.2820711136	1681
24.2871320248	1679
24.2923300266	1683
24.2971279621	1686
24.3019959927	1686
24.3071889877	1683
24.3121681213	1682
24.3170480728	1682
24.3219389915	1674
24.3270881176	1659
24.3319940567	1654
24.337182045	1657
24.3420100212	1649
24.347080946	1638
24.351995945	1633
24.3570671082	1627
24.3619270325	1620
24.3671889305	1619
24.3721270561	1617
24.3769919872	1611
24.3819909096	1613
24.3872671127	1612
24.3922009468	1602
24.397026062	1595
24.4022400379	1601
24.4070661068	1603
24.4120070934	1603
24.4168589115	1609
24.4219839573	1613
24.4271519184	1609
24.432156086	1606
24.4371891022	1605
24.4421579838	1609
24.4473109245	1617
24.4522809982	1625
24.4570720196	1623
24.4621679783	1621
24.467320919	1627
24.4721090794	1625
24.4771659374	1621
24.4824390411	1626
24.4874780178	1633
24.4925060272	1636
24.4973890781	1644
24.5023291111	1655
24.507379055	1678
24.5123460293	1680
24.5173749924	1670
24.5225179195	1675
24.5275700092	1663
24.5327119827	1626
24.5376091003	1598
24.5427880287	1603
24.5475509167	1618
24.5525839329	1632
24.5576090813	1625
24.5624599457	1613
24.5674099922	1610
24.5725269318	1597
24.5775001049	1586
24.5825800896	1586
24.5876100063	1581
24.5926890373	1574
24.5974609852	1575
24.6024870872	1582
24.6074769497	1586
24.6125519276	1561
24.6175470352	1341
24.622729063	1036
24.6275210381	777
24.6324009895	717
24.6372449398	909
24.6422350407	1049
24.6472561359	982
24.6524441242	1201
24.6572329998	1921
24.6621630192	2682
24.6671509743	2537
24.6721410751	1895
24.6771409512	1602
24.6822199821	1668
24.6872069836	1668
24.6922121048	1578
24.697147131	1531
24.7020571232	1547
24.7072219849	1558
24.7123501301	1544
24.7171800137	1529
24.7221229076	1521
24.7273669243	1516
24.7320759296	1513
24.7370550632	1509
24.7421019077	1497
24.7473471165	1488
24.7520999908	1494
24.7572541237	1489
24.7625570297	1476
24.7675271034	1465
24.7725970745	1464
24.7774209976	1462
24.7824130058	1455
24.7874860764	1443
24.7924470901	1429
24.7975270748	1422
24.8027260303	1420
24.8076889515	1405
24.8126590252	1395
24.8176560402	1392
24.8229560852	1394
24.8278269768	1399
24.8327839375	1405
24.8379199505	1415
24.8427000046	1427
24.8477990627	1447
24.852807045	1463
24.8579649925	1480
24.8630149364	1501
24.8680660725	1531
24.8729391098	1550
24.8779931068	1563
24.8832471371	1577
24.8883481026	1601
24.8931620121	1619
24.8983309269	1629
24.9032111168	1641
24.9082379341	1657
24.9132311344	1668
24.918282032	1674
24.9233350754	1683
24.9282290936	1691
24.9332280159	1699
24.9381349087	1694
24.9433040619	1692
24.9482209682	1694
24.9533081055	1697
24.9584031105	1694
24.963463068	1685
24.9682090282	1675
24.9733760357	1670
24.9782729149	1672
24.9833290577	1668
24.9883749485	1657
24.9933719635	1648
24.9984340668	1644
25.0034251213	1637
25.0084850788	1635
25.0134510994	1635
25.0187590122	1635
25.0238089561	1636
25.028580904	1638
25.0335290432	1635
25.0387051105	1626
25.0437209606	1625
25.0484640598	1629
25.053591013	1633
25.058619976	1632
25.0635609627	1634
25.0687389374	1639
25.0735199451	1637
25.0787649155	1637
25.0838570595	1638
25.0888309479	1641
25.0936279297	1639
25.0987579823	1640
25.1037631035	1643
25.1086699963	1649
25.1136820316	1652
25.1186869144	1651
25.1237881184	1654
25.1288599968	1665
25.1338729858	1672
25.1389949322	1675
25.1439950466	1686
25.148927927	1701
25.153908968	1716
25.1587610245	1707
25.1638009548	1712
25.1688320637	1709
25.1739470959	1676
25.1790931225	1636
25.1839659214	1632
25.1888990402	1638
25.1939809322	1643
25.1989929676	1646
25.2037949562	1650
25.2088279724	1638
25.2138609886	1627
25.2187230587	1626
25.2239010334	1618
25.2287619114	1610
25.233716011	1610
25.2390401363	1616
25.2438669205	1611
25.2488191128	1615
25.2539269924	1622
25.2590911388	1480
25.263890028	1174
25.2689709663	872
25.273911953	749
25.2788109779	935
25.2839651108	1131
25.2889080048	1051
25.2938449383	1104
25.2988600731	1678
25.3040070534	2512
25.3087809086	2734
25.3137009144	2144
25.3188951015	1657
25.323900938	1626
25.3287169933	1677
25.3336970806	1637
25.3386440277	1587
25.3436379433	1580
25.3486659527	1587
25.3536469936	1578
25.3587999344	1565
25.3638410568	1554
25.3686609268	1546
25.3736059666	1540
25.3786840439	1538
25.3837780952	1539
25.3887951374	1537
25.3937289715	1528
25.3989799023	1517
25.4038310051	1513
25.4089140892	1507
25.4138240814	1501
25.4189870358	1498
25.4240040779	1489
25.4289400578	1479
25.4338769913	1477
25.4391069412	1469
25.4439890385	1456
25.4490559101	1447
25.4540109634	1443
25.4588530064	1440
25.4638650417	1437
25.4689159393	1445
25.4740419388	1453
25.4788379669	1459
25.4840579033	1473
25.4889321327	1493
25.4939210415	1517
25.4987010956	1539
25.5036160946	1557
25.5086429119	1580
25.5135989189	1611
25.5188131332	1634
25.5237810612	1641
25.5287840366	1651
25.5339159966	1663
25.5389001369	1680
25.5439510345	1692
25.5489640236	1700
25.55407691	1707
25.5588579178	1718
25.5638930798	1730
25.5688719749	1734
25.5741319656	1736
25.5791890621	1735
25.5843100548	1733
25.5891749859	1731
25.5942161083	1729
25.5994210243	1728
25.6044950485	1719
25.6093740463	1715
25.6143319607	1712
25.6192839146	1708
25.6242439747	1698
25.6291100979	1691
25.634319067	1688
25.6393120289	1676
25.6443490982	1672
25.6491999626	1668
25.6541209221	1669
25.6593060493	1664
25.6643650532	1654
25.6693019867	1653
25.6742861271	1656
25.6792240143	1652
25.6842861176	1647
25.6892719269	1645
25.6942360401	1643
25.6992900372	1643
25.704390049	1649
25.7092421055	1648
25.7141840458	1647
25.7193510532	1654
25.7241930962	1653
25.7292690277	1652
25.7342259884	1650
25.7393450737	1653
25.744218111	1653
25.7490980625	1652
25.7539999485	1656
25.7592220306	1662
25.7640910149	1662
25.7691171169	1662
25.7740340233	1660
25.7791509628	1670
25.7843570709	1682
25.7892029285	1694
25.794205904	1709
25.7994399071	1713
25.8042829037	1700
25.8091499805	1705
25.8140909672	1702
25.8191959858	1664
25.8241770267	1627
25.8291780949	1622
25.834207058	1633
25.8390760422	1647
25.8443460464	1644
25.8492610455	1637
25.8543651104	1626
25.8593671322	1615
25.8642599583	1612
25.8690719604	1608
25.8741891384	1604
25.879087925	1604
25.884344101	1607
25.8892149925	1605
25.8942320347	1610
25.899189949	1592
25.9042229652	1386
25.9092729092	1067
25.9141449928	775
25.919205904	716
25.9241330624	945
25.9288229942	1122
25.9338970184	1054
25.9389750957	1244
25.9439110756	1898
25.9489810467	2656
25.9541349411	2599
25.9590520859	1954
25.9641411304	1614
25.9692070484	1640
25.9741671085	1657
25.9790940285	1596
25.9843261242	1555
25.9892039299	1564
25.9941699505	1571
25.9993081093	1563
26.0043411255	1549
26.0091929436	1543
26.0140891075	1536
26.0194411278	1526
26.0241880417	1522
26.0290529728	1525
26.0340690613	1524
26.0391499996	1514
26.0441761017	1500
26.0491969585	1494
26.0541651249	1496
26.0592989922	1493
26.0641789436	1482
26.0691459179	1472
26.0742211342	1467
26.0794451237	1459
26.0842471123	1450
26.0891230106	1441
26.0941491127	1437
26.0994160175	1430
26.1044130325	1427
26.1092131138	1429
26.1142389774	1436
26.1192009449	1452
26.1245040894	1466
26.1293020248	1479
26.134524107	1496
26.1394751072	1518
26.1441190243	1546
26.1491699219	1577
26.1544430256	1599
26.1594951153	1612
26.1643741131	1625
26.1693930626	1635
26.1745450497	1643
26.179377079	1648
26.1844201088	1658
26.1892940998	1672
26.1943390369	1680
26.1995720863	1682
26.2045660019	1689
26.209487915	1692
26.2144839764	1694
26.2196979523	1695
26.2247481346	1697
26.2295870781	1698
26.2348120213	1700
26.2396171093	1699
26.2445681095	1697
26.249557972	1688
26.2546241283	1678
26.2597129345	1668
26.2646501064	1667
26.2694950104	1667
26.274586916	1657
26.279531002	1651
26.2844800949	1641
26.2895240784	1637
26.2947599888	1631
26.2995479107	1627
26.3043990135	1628
26.3093929291	1626
26.3145060539	1625
26.3195710182	1627
26.3246109486	1623
26.3294410706	1618
26.3345489502	1621
26.3396661282	1627
26.3445100784	1630
26.3494849205	1625
26.3547179699	1625
26.3597300053	1632
26.3645970821	1633
26.3694310188	1631
26.3744950294	1630
26.3793640137	1634
26.3845820427	1639
26.3895249367	1636
26.3944449425	1629
26.3994851112	1634
26.4046399593	1640
26.4094910622	1643
26.4146440029	1648
26.4196789265	1654
26.4245691299	1668
26.4296069145	1684
26.4346749783	1698
26.4395949841	1687
26.4445641041	1687
26.4493570328	1693
26.4546771049	1668
26.4594271183	1627
26.4644680023	1606
26.4696509838	1610
26.4745149612	1631
26.4794459343	1632
26.4845840931	1623
26.4893779755	1615
26.4943931103	1615
26.4995760918	1613
26.5043020248	1607
26.5093359947	1600
26.5145680904	1595
26.5194349289	1595
26.524490118	1596
26.5293500423	1600
26.5345070362	1599
26.5395491123	1503
26.5446269512	1212
26.5494229794	905
26.5542480946	681
26.5593969822	736
26.5642330647	1012
26.5691981316	1128
26.5742089748	1126
26.5791950226	1519
26.5841050148	2269
26.5891110897	2742
26.5941970348	2332
26.5993139744	1763
26.6042649746	1618
26.6090519428	1658
26.6139669418	1635
26.6193199158	1577
26.6241719723	1550
26.6290519238	1557
26.6341729164	1558
26.6391761303	1548
26.644037962	1532
26.6490941048	1528
26.6540379524	1529
26.6590521336	1523
26.6642980576	1518
26.6691699028	1514
26.674052	1507
26.678894043	1502
26.6840310097	1500
26.6889600754	1495
26.6940500736	1485
26.6992299557	1476
26.7039499283	1471
26.7089419365	1465
26.7138800621	1462
26.7189331055	1451
26.7237401009	1438
26.728728056	1430
26.733923912	1428
26.7387349606	1427
26.7439730167	1428
26.7488980293	1434
26.7541029453	1449
26.7591149807	1463
26.7641499043	1476
26.7690050602	1492
26.7739961147	1515
26.7789881229	1540
26.7841970921	1565
26.7889840603	1587
26.7941241264	1601
26.7989161015	1608
26.8038089275	1623
26.8089179993	1638
26.8139760494	1645
26.8190770149	1652
26.8239839077	1659
26.8288280964	1663
26.8337929249	1672
26.8388941288	1673
26.8438689709	1673
26.8487610817	1686
26.8540010452	1697
26.8588740826	1697
26.8638339043	1690
26.86886096	1689
26.8740189075	1689
26.8788380623	1679
26.8839929104	1674
26.889056921	1674
26.893871069	1667
26.8989200592	1661
26.9039211273	1658
26.9089200497	1657
26.913736105	1652
26.9188330173	1639
26.9238040447	1631
26.9288051128	1627
26.9339039326	1625
26.9391441345	1621
26.9440159798	1611
26.9489369392	1608
26.9540510178	1608
26.9588499069	1610
26.9639611244	1611
26.9689190388	1614
26.9740099907	1612
26.979115963	1609
26.9840230942	1609
26.9889850616	1608
26.9939939976	1607
26.9991600513	1610
27.0041821003	1622
27.0090899467	1620
27.014113903	1614
27.0191340446	1616
27.0243530273	1615
27.0290300846	1625
27.0340900421	1637
27.0393719673	1641
27.0442590714	1641
27.0491521358	1648
27.0540719032	1657
27.0590491295	1674
27.0640909672	1680
27.0691759586	1679
27.0741000175	1678
27.0789921284	1656
27.0839810371	1616
27.0890259743	1600
27.0940589905	1601
27.0992040634	1615
27.1040270329	1620
27.10886693	1613
27.1138870716	1607
27.119040966	1605
27.1240320206	1594
27.1289710999	1586
27.1339480877	1585
27.1389899254	1587
27.143914938	1589
27.1489450932	1582
27.1540379524	1583
27.1592850685	1586
27.1642980576	1489
27.1691141129	1205
27.1740460396	911
27.1790530682	737
27.1841199398	854
27.1889269352	1033
27.1941020489	970
27.1989989281	957
27.203592062	1467
27.2086210251	2323
27.2136211395	2749
27.2188761234	2244
27.2239859104	1683
27.2288360596	1591
27.2336320877	1652
27.2386200428	1624
27.2436800003	1559
27.2486929893	1548
27.2537031174	1561
27.2587919235	1559
27.2636511326	1546
27.2685670853	1529
27.2736039162	1524
27.2786889076	1522
27.2839720249	1515
27.2888360023	1505
27.2938160896	1497
27.2987270355	1494
27.3039000034	1492
27.3087599277	1485
27.3138771057	1475
27.3191540241	1470
27.323923111	1475
27.3288440704	1465
27.3339409828	1453
27.3391129971	1442
27.3439939022	1436
27.3489770889	1427
27.3540370464	1421
27.359112978	1419
27.3641169071	1408
27.3691220284	1401
27.3742179871	1402
27.3793950081	1407
27.3844180107	1412
27.3892459869	1423
27.3942780495	1431
27.3993999958	1447
27.4044630527	1465
27.4093101025	1481
27.4142861366	1507
27.4193611145	1530
27.4242670536	1543
27.4291470051	1559
27.4343070984	1579
27.4393420219	1593
27.4443790913	1611
27.4491770267	1638
27.4542651176	1654
27.4594759941	1666
27.464400053	1679
27.4693100452	1698
27.4744551182	1705
27.4792630672	1701
27.4842739105	1698
27.4894680977	1703
27.4943249226	1705
27.4994111061	1699
27.5044050217	1692
27.5093150139	1690
27.5142641068	1683
27.5194089413	1677
27.5244350433	1671
27.5292580128	1667
27.5344741344	1667
27.5394759178	1667
27.5443921089	1664
27.5495679379	1655
27.5544829369	1648
27.5595340729	1644
27.5645129681	1640
27.5693809986	1641
27.5744709969	1643
27.5795531273	1640
27.5847110748	1637
27.5896630287	1635
27.5945990086	1638
27.5996489525	1634
27.6044690609	1630
27.6094110012	1634
27.6144371033	1642
27.6194031239	1645
27.6244900227	1645
27.6294469833	1644
27.6345911026	1655
27.6395320892	1659
27.6444089413	1661
27.6494579315	1666
27.6547169685	1675
27.6598520279	1674
27.6647269726	1684
27.6695599556	1702
27.6748559475	1722
27.6798779964	1728
27.6849210262	1716
27.6900920868	1719
27.6950569153	1712
27.6998839378	1679
27.7049119473	1644
27.7099909782	1637
27.7148849964	1648
27.7199969292	1661
27.7249679565	1662
27.7297890186	1653
27.7349610329	1645
27.7399439812	1633
27.7447659969	1629
27.7500679493	1627
27.7550570965	1621
27.7598860264	1621
27.7649040222	1622
27.770127058	1625
27.7749259472	1627
27.7799019814	1590
27.7849450111	1361
27.7901289463	1047
27.7948701382	839
27.7999150753	907
27.8048729897	1135
27.8099291325	1167
27.8149499893	996
27.8196721077	1220
27.8245949745	1922
27.8296580315	2717
27.8348610401	2612
27.8399419785	1911
27.8448710442	1565
27.8497171402	1616
27.8547680378	1669
27.859762907	1625
27.8647630215	1584
27.8698179722	1586
27.8749279976	1598
27.879997015	1587
27.8848080635	1576
27.8899769783	1574
27.8948230743	1573
27.8998520374	1569
27.9047701359	1560
27.9098370075	1547
27.914880991	1538
27.9199910164	1536
27.9249169827	1533
27.929970026	1526
27.9351830482	1520
27.9403240681	1511
27.9449379444	1505
27.9499149323	1495
27.9549319744	1486
27.960007906	1476
27.9649839401	1467
27.9701471329	1460
27.9750099182	1453
27.9800329208	1453
27.9850959778	1450
27.9899909496	1446
27.9950230122	1448
28.0002241135	1459
28.0050821304	1474
28.0099890232	1478
28.0151779652	1498
28.0201840401	1522
28.0251619816	1549
28.030121088	1570
28.035284996	1586
28.0403089523	1605
28.0453090668	1620
28.0504279137	1639
28.0555050373	1652
28.0605590343	1670
28.0654540062	1689
28.070524931	1701
28.0754950047	1708
28.0804960728	1722
28.0855350494	1736
28.0906789303	1739
28.0956380367	1741
28.1004629135	1742
28.1054959297	1745
28.1105639935	1741
28.1157369614	1742
28.1207280159	1739
28.1256301403	1732
28.1305880547	1724
28.1355829239	1722
28.1407680511	1713
28.1458349228	1703
28.1507339478	1703
28.1557450294	1698
28.1609139442	1685
28.1656229496	1683
28.1707351208	1682
28.1756961346	1676
28.1806890965	1665
28.1855220795	1659
28.1908221245	1661
28.1956629753	1660
28.2007050514	1655
28.2058670521	1649
28.2106239796	1652
28.2157990932	1652
28.2206249237	1653
28.2255990505	1654
28.230727911	1654
28.235804081	1662
28.2407019138	1666
28.2456030846	1659
28.2507259846	1660
28.2555789948	1666
28.2607390881	1665
28.2657189369	1665
28.2708370686	1668
28.2758970261	1672
28.2809939384	1679
28.2857201099	1687
28.29073596	1706
28.2959489822	1722
28.3009529114	1730
28.3058609962	1715
28.3110699654	1720
28.3160669804	1713
28.3208770752	1676
28.3259921074	1635
28.3311049938	1629
28.3360919952	1642
28.3410000801	1654
28.3461370468	1650
28.3509349823	1646
28.356137991	1638
28.3609900475	1630
28.3661301136	1623
28.3711800575	1616
28.3762989044	1611
28.3811359406	1607
28.3859961033	1603
28.3911790848	1605
28.3962950706	1611
28.4012470245	1600
28.4060950279	1433
28.4111790657	1124
28.4160621166	825
28.4210031033	733
28.4258840084	971
28.4310100079	1211
28.4360101223	1156
28.4407980442	1236
28.4459140301	1761
28.4510550499	2541
28.4559531212	2713
28.4607870579	2099
28.4658429623	1617
28.4710390568	1571
28.4759061337	1628
28.4808459282	1607
28.485845089	1560
28.490842104	1546
28.4959030151	1552
28.5008730888	1547
28.5058350563	1533
28.5108280182	1530
28.5161149502	1530
28.5209989548	1525
28.5260391235	1517
28.5311479568	1506
28.5360651016	1503
28.540872097	1501
28.5460619926	1498
28.5511031151	1493
28.5561680794	1481
28.5610449314	1472
28.5661010742	1468
28.571005106	1463
28.5760169029	1452
28.5810220242	1440
28.5860929489	1434
28.5913770199	1425
28.5962150097	1420
28.6011559963	1420
28.6062259674	1425
28.6111690998	1423
28.616300106	1428
28.6211900711	1440
28.6261711121	1456
28.6311380863	1475
28.6361370087	1494
28.6412260532	1509
28.6460900307	1532
28.6512980461	1556
28.6560640335	1575
28.6610240936	1589
28.6660299301	1605
28.6711220741	1615
28.6760690212	1618
28.6810560226	1628
28.6860890388	1643
28.69105196	1648
28.6960151196	1652
28.7011229992	1659
28.7059810162	1667
28.7110331059	1671
28.7161519527	1671
28.7210469246	1680
28.7260119915	1687
28.731210947	1688
28.7362160683	1690
28.7411119938	1690
28.7461459637	1679
28.7515089512	1672
28.756262064	1670
28.7611861229	1664
28.766313076	1655
28.7713091373	1646
28.7764129639	1642
28.7812831402	1636
28.7861740589	1631
28.7914760113	1627
28.7962770462	1621
28.8012890816	1617
28.8063831329	1613
28.8115251064	1609
28.8163750172	1610
28.8213000298	1616
28.8261790276	1612
28.8313980103	1608
28.8364269733	1615
28.8412570953	1621
28.8462209702	1616
28.851211071	1617
28.8563621044	1625
28.8611109257	1624
28.8661739826	1622
28.8713929653	1623
28.8761789799	1621
28.8810710907	1622
28.8863329887	1631
28.8912551403	1631
28.8962199688	1621
28.9012410641	1622
28.9062569141	1631
28.9112329483	1635
28.916367054	1634
28.9211990833	1634
28.9261920452	1636
28.9314091206	1638
28.9364309311	1646
28.9414150715	1659
28.9464569092	1674
28.9515380859	1685
28.9564220905	1676
28.9612829685	1677
28.9664320946	1676
28.9712700844	1645
28.9763429165	1607
28.981372118	1601
28.9864709377	1614
28.9914970398	1625
28.9965260029	1619
29.0012869835	1617
29.0063009262	1617
29.0114741325	1603
29.0164999962	1592
29.0213649273	1588
29.0265119076	1581
29.0315361023	1580
29.0363440514	1583
29.0414829254	1584
29.0464990139	1583
29.0516400337	1581
29.0564820766	1463
29.0615210533	1163
29.0664720535	862
29.0715129375	670
29.0762040615	777
29.0810880661	1073
29.0860369205	1159
29.0913069248	1192
29.0960729122	1615
29.100883007	2361
29.1058900356	2721
29.1110799313	2252
29.1161689758	1712
29.1210501194	1605
29.1260149479	1633
29.1309521198	1604
29.1360630989	1549
29.1409709454	1529
29.1459901333	1539
29.1512210369	1542
29.15594697	1533
29.1609399319	1521
29.1660060883	1510
29.1712019444	1511
29.1761319637	1509
29.1813030243	1501
29.186398983	1499
29.1911239624	1496
29.1961250305	1488
29.2012419701	1480
29.2062909603	1479
29.2115249634	1473
29.2163159847	1464
29.2213280201	1459
29.2262780666	1455
29.2314479351	1448
29.2364940643	1437
29.2414450645	1425
29.2465910912	1423
29.251554966	1426
29.2564921379	1425
29.2615089417	1423
29.266700983	1433
29.2716619968	1447
29.2767000198	1458
29.2815001011	1476
29.2863590717	1501
29.2916650772	1524
29.2964849472	1548
29.301502943	1571
29.3067309856	1600
29.311619997	1618
29.3165810108	1630
29.3216240406	1637
29.3266150951	1640
29.3318099976	1648
29.3366830349	1653
29.3416321278	1657
29.3465850353	1660
29.3517200947	1667
29.3567519188	1672
29.3616580963	1673
29.366822958	1678
29.3718130589	1681
29.3765499592	1680
29.3815369606	1679
29.3867199421	1676
29.3916990757	1677
29.3968029022	1675
29.401843071	1672
29.4067180157	1665
29.4119040966	1663
29.4168589115	1660
29.4217309952	1652
29.4267070293	1643
29.4319939613	1640
29.4367849827	1634
29.4418859482	1622
29.4468269348	1616
29.4519360065	1617
29.4569740295	1618
29.4619920254	1612
29.4670200348	1607
29.4720480442	1603
29.4771130085	1609
29.4820821285	1610
29.4872989655	1608
29.4922430515	1605
29.4970989227	1603
29.5020029545	1608
29.5071940422	1620
29.5119690895	1618
29.5170400143	1617
29.5221560001	1620
29.5272550583	1619
29.532006979	1620
29.5370020866	1623
29.5419480801	1628
29.5471100807	1625
29.5520040989	1623
29.557115078	1624
29.5619859695	1627
29.5671739578	1622
29.5722470284	1627
29.5770599842	1631
29.5820360184	1630
29.587141037	1627
29.5920789242	1627
29.5970621109	1640
29.602011919	1647
29.6069791317	1652
29.6121990681	1659
29.6172289848	1678
29.6222131252	1682
29.6271569729	1677
29.6323349476	1677
29.6370921135	1655
29.6421461105	1621
29.6473760605	1604
29.6522381306	1606
29.6571519375	1619
29.6622989178	1621
29.6673569679	1616
29.6721539497	1609
29.6772229671	1601
29.6822280884	1593
29.6872780323	1584
29.692193985	1579
29.6971139908	1577
29.7020509243	1580
29.707310915	1584
29.7123179436	1588
29.7171099186	1579
29.7222650051	1528
29.7274050713	1288
29.732419014	981
29.7370750904	738
29.7419989109	700
29.7469699383	925
29.7518310547	1109
29.7567920685	1080
29.7619180679	1320
29.7669301033	2020
29.7717940807	2710
29.776911974	2488
29.7817161083	1856
29.786921978	1599
29.7917830944	1647
29.7968139648	1642
29.8017230034	1573
29.8067700863	1532
29.8117620945	1537
29.81665802	1538
29.8216519356	1527
29.8269600868	1513
29.8319480419	1510
29.8367710114	1508
29.8417201042	1501
29.8468179703	1492
29.8519239426	1483
29.8567800522	1487
29.8618309498	1479
29.8669989109	1470
29.8718400002	1464
29.8768889904	1467
29.8819100857	1463
29.8870449066	1459
29.892070055	1454
29.8970019817	1441
29.9019780159	1428
29.9071280956	1417
29.912003994	1403
29.9170670509	1401
29.9220240116	1402
29.9272499084	1400
29.9320459366	1396
29.9370179176	1400
29.94196105	1414
29.9473059177	1427
29.9522950649	1444
29.9572179317	1464
29.9620950222	1481
29.967083931	1505
29.9722430706	1532
29.9770600796	1547
29.9821169376	1561
29.9872510433	1573
29.9921040535	1588
