0.000256061553955	4
0.000471115112305	5
0.00062894821167	5
0.000787019729614	5
0.000929117202759	6
0.00107312202454	4
0.00121402740479	5
0.00135397911072	5
0.00149512290955	4
0.00163698196411	5
0.00178003311157	5
0.0019199848175	5
0.00206017494202	5
0.00220012664795	5
0.00234007835388	5
0.00248312950134	5
0.00271797180176	5
0.00295901298523	4
0.00321197509766	4
0.00342202186584	1231
0.00359916687012	5
0.00375699996948	5
0.0039119720459	2099
0.00409007072449	220
0.00425505638123	5
0.00441217422485	6
0.00461506843567	885
0.00479006767273	5
0.00494408607483	4
0.00509715080261	5
0.00525116920471	4
0.00540614128113	5
0.00557017326355	5
0.00573110580444	5
0.00588297843933	4
0.0060350894928	4
0.00640606880188	1647
0.00659513473511	1625
0.0106410980225	1604
0.015645980835	1584
0.0207140445709	1580
0.0258350372314	1587
0.0309720039368	1623
0.0357990264893	1630
0.0408940315247	1610
0.0460391044617	1580
0.0509400367737	1567
0.0559060573578	1571
0.0608611106873	1586
0.066123008728	1590
0.0710070133209	1563
0.0759110450745	1579
0.0810370445251	1645
0.0859229564667	1627
0.0910029411316	1404
0.0959620475769	1193
0.101266145706	988
0.106266021729	901
0.111008167267	760
0.115782976151	433
0.120849132538	246
0.12583899498	770
0.130601167679	1875
0.135646104813	2918
0.140810966492	2618
0.145560026169	1798
0.15069103241	1527
0.155599117279	1679
0.160701990128	1738
0.165862083435	1653
0.170784950256	1580
0.175711154938	1589
0.180685997009	1618
0.185904979706	1619
0.190983057022	1606
0.195827960968	1588
0.200817108154	1586
0.205832958221	1584
0.210955142975	1565
0.215883970261	1557
0.22089600563	1561
0.225862026215	1548
0.230865001678	1538
0.235756158829	1528
0.240900039673	1512
0.245795965195	1507
0.250959157944	1499
0.255826950073	1482
0.260827064514	1463
0.265822172165	1446
0.270929098129	1429
0.276095151901	1411
0.281023979187	1386
0.286245107651	1372
0.291366100311	1357
0.296095132828	1341
0.301157951355	1352
0.306342124939	1357
0.311159133911	1342
0.316154003143	1357
0.321411132812	1398
0.326248168945	1412
0.331259965897	1423
0.336153030396	1450
0.341348171234	1477
0.346302032471	1493
0.351382017136	1532
0.35623216629	1558
0.361255168915	1583
0.366410017014	1621
0.371345996857	1667
0.376244068146	1675
0.38131403923	1680
0.386448144913	1699
0.391330003738	1710
0.396371126175	1701
0.401479959488	1703
0.406536102295	1702
0.411575078964	1692
0.416635036469	1721
0.421604156494	1753
0.426537036896	1732
0.43164896965	1705
0.43668794632	1691
0.441820144653	1671
0.446782112122	1690
0.451681137085	1709
0.456581115723	1685
0.461656093597	1660
0.466752052307	1668
0.471610069275	1689
0.476645946503	1665
0.481620073318	1643
0.486569166183	1652
0.491557121277	1664
0.496591091156	1652
0.501775026321	1643
0.506759166718	1666
0.511614084244	1658
0.516632080078	1635
0.521752119064	1658
0.526543140411	1685
0.531486034393	1666
0.536733150482	1648
0.541604995728	1663
0.546504974365	1677
0.55144405365	1685
0.556673049927	1673
0.561442136765	1666
0.566648006439	1667
0.571673154831	1673
0.576416015625	1654
0.581441164017	1663
0.586650133133	1686
0.59167599678	1690
0.596632003784	1685
0.601886034012	1706
0.606708049774	1726
0.611680984497	1719
0.616537094116	1703
0.621703147888	1713
0.626798152924	1711
0.631598949432	1679
0.636682987213	1648
0.641576051712	1632
0.646651983261	1631
0.651613950729	1640
0.656644105911	1651
0.661862134933	1638
0.666860103607	1624
0.671621084213	1616
0.676664113998	1618
0.681554079056	1616
0.686723947525	1607
0.691787004471	1621
0.696748018265	1625
0.701733112335	1625
0.706797122955	1659
0.711831092834	1611
0.716786146164	1385
0.72202205658	1115
0.727020025253	930
0.731698036194	913
0.736479043961	782
0.741457939148	496
0.746204137802	539
0.751162052155	1240
0.75617814064	2385
0.761655092239	2954
0.766232013702	2336
0.771276950836	1684
0.776565074921	1602
0.781517028809	1715
0.786530017853	1709
0.791319131851	1633
0.796206951141	1591
0.801432132721	1607
0.806437969208	1642
0.81124997139	1632
0.81622004509	1572
0.821382045746	1544
0.82634305954	1576
0.831244945526	1590
0.836380004883	1585
0.841364145279	1571
0.846493959427	1568
0.851626157761	1555
0.856423139572	1535
0.86150097847	1514
0.866590023041	1491
0.871479034424	1499
0.876528024673	1511
0.881792068481	1486
0.886631011963	1460
0.891674041748	1449
0.896583080292	1433
0.901733160019	1408
0.906861066818	1392
0.911693096161	1380
0.91663312912	1368
0.921561956406	1360
0.926605939865	1367
0.931700944901	1373
0.936825037003	1387
0.941956996918	1399
0.946696996689	1421
0.951632022858	1438
0.95659995079	1466
0.961709976196	1496
0.966679096222	1510
0.97167301178	1530
0.976767063141	1564
0.981631994247	1590
0.986675977707	1600
0.99155497551	1612
0.996611118317	1636
1.00172805786	1660
1.00682210922	1674
1.01164793968	1685
1.01648402214	1685
1.02156496048	1689
1.02648901939	1703
1.03165912628	1708
1.0366461277	1704
1.04155707359	1702
1.04653000832	1700
1.05152106285	1692
1.05676698685	1678
1.06176304817	1669
1.06680607796	1672
1.07163310051	1668
1.07662200928	1654
1.08162999153	1647
1.08665800095	1653
1.09159302711	1655
1.09692311287	1633
1.10188698769	1623
1.10673999786	1615
1.11185097694	1617
1.11679816246	1621
1.1220099926	1618
1.1271071434	1620
1.13195896149	1620
1.13681697845	1615
1.14213299751	1612
1.14711403847	1616
1.15220117569	1619
1.15743708611	1622
1.16245102882	1624
1.16714501381	1619
1.17214107513	1622
1.17722201347	1629
1.182336092	1622
1.18738007545	1617
1.19224309921	1621
1.19718599319	1623
1.20211911201	1621
1.20720100403	1620
1.21237111092	1622
1.21752810478	1619
1.22255802155	1623
1.22767901421	1628
1.23224306107	1624
1.23738408089	1617
1.24234509468	1621
1.24725103378	1636
1.25229406357	1646
1.25743198395	1647
1.26213407516	1666
1.26746416092	1669
1.27231216431	1644
1.27739596367	1635
1.28269100189	1619
1.28754210472	1583
1.29241800308	1548
1.29755806923	1545
1.30267596245	1563
1.30752110481	1572
1.31241703033	1568
1.31769108772	1553
1.32257914543	1541
1.32759308815	1539
1.33262515068	1537
1.33775115013	1522
1.34272813797	1519
1.34761595726	1519
1.35260105133	1521
1.35756015778	1551
1.36265611649	1576
1.36772108078	1406
1.37273311615	1127
1.37785315514	879
1.38260912895	834
1.38738799095	835
1.39250206947	579
1.39715695381	310
1.40220212936	609
1.40714597702	1564
1.41196203232	2775
1.41698813438	2823
1.42198204994	1952
1.42701506615	1468
1.43208003044	1573
1.43705415726	1687
1.44203495979	1618
1.4468960762	1543
1.45195603371	1556
1.45712399483	1579
1.4620950222	1566
1.46718406677	1541
1.47218203545	1521
1.47719407082	1511
1.48213195801	1509
1.48732614517	1512
1.49217510223	1524
1.49707102776	1524
1.50202012062	1503
1.50705194473	1479
1.51187610626	1471
1.51707816124	1459
1.52209806442	1455
1.52713012695	1449
1.53204202652	1439
1.5371761322	1418
1.54204416275	1397
1.54686903954	1368
1.55193400383	1344
1.55714607239	1325
1.56220817566	1304
1.56719207764	1272
1.5720000267	1241
1.57703208923	1242
1.58187198639	1252
1.58684110641	1250
1.59180617332	1250
1.59678816795	1252
1.60179901123	1276
1.60688209534	1316
1.61178898811	1339
1.61692905426	1355
1.62197399139	1389
1.62700915337	1423
1.63181614876	1442
1.63689112663	1469
1.64199900627	1513
1.64678907394	1550
1.65181112289	1572
1.65689301491	1590
1.66189599037	1613
1.66687893867	1637
1.67178297043	1656
1.67679095268	1659
1.6819870472	1656
1.68699002266	1666
1.69194507599	1677
1.69683599472	1687
1.7019610405	1679
1.70686602592	1667
1.71180796623	1654
1.71678304672	1648
1.72197198868	1648
1.726801157	1649
1.73183608055	1652
1.73687314987	1646
1.74199414253	1643
1.74686098099	1651
1.75187897682	1645
1.75690793991	1634
1.76173400879	1624
1.76694703102	1623
1.77180814743	1614
1.77677512169	1610
1.78206300735	1620
1.7869579792	1626
1.79182505608	1623
1.79693007469	1632
1.80207204819	1639
1.80710101128	1627
1.81193614006	1612
1.81705403328	1608
1.82200694084	1626
1.82718610764	1641
1.83200716972	1635
1.83712601662	1620
1.8420779705	1638
1.84711813927	1651
1.85195112228	1644
1.8572511673	1635
1.86222100258	1653
1.86710095406	1669
1.87214493752	1686
1.87730002403	1690
1.88222694397	1705
1.88715815544	1725
1.89239597321	1710
1.89745903015	1697
1.90245294571	1703
1.90749502182	1691
1.91228508949	1647
1.91711711884	1617
1.92227911949	1632
1.92709612846	1636
1.93213796616	1622
1.93736600876	1601
1.94217801094	1587
1.94709610939	1577
1.95216298103	1563
1.95723009109	1557
1.96199417114	1581
1.96730709076	1596
1.97214198112	1573
1.97716593742	1554
1.98235011101	1545
1.98740315437	1554
1.99226713181	1410
1.99759602547	1199
2.00269603729	1064
2.00734210014	1054
2.0123860836	1109
2.01760101318	974
2.02231907845	786
2.02716612816	931
2.03214812279	1523
2.03718495369	2426
2.04206895828	2387
2.04710507393	1679
2.05206394196	1347
2.05716705322	1496
2.06215906143	1622
2.06722402573	1582
2.07194113731	1541
2.07698702812	1562
2.08220696449	1605
2.08699202538	1613
2.09208297729	1588
2.09715914726	1569
2.10190701485	1568
2.10692715645	1578
2.11181902885	1577
2.11702203751	1555
2.12203598022	1546
2.12711310387	1555
2.1320130825	1548
2.13698816299	1539
2.14212608337	1536
2.14704012871	1532
2.15202498436	1533
2.15701508522	1530
2.16189408302	1497
2.16694498062	1486
2.17188501358	1495
2.17693209648	1490
2.18210506439	1458
2.18691205978	1437
2.19182705879	1438
2.1969230175	1416
2.20204210281	1399
2.206772089	1391
2.21182703972	1405
2.21695804596	1395
2.22213196754	1401
2.22695016861	1416
2.23196601868	1439
2.2369890213	1469
2.24214696884	1501
2.24690198898	1510
2.25187110901	1523
2.25702404976	1554
2.26191902161	1596
2.26715016365	1619
2.27210116386	1623
2.27694201469	1646
2.28208208084	1678
2.28687906265	1702
2.29189705849	1699
2.29704213142	1715
2.30219197273	1700
2.30737900734	1684
2.31208896637	1703
2.31716012955	1713
2.3219139576	1701
2.32701897621	1692
2.33195114136	1708
2.33713197708	1700
2.34220004082	1709
2.34722113609	1706
2.35202407837	1689
2.3571741581	1697
2.36210608482	1710
2.36728405952	1715
2.37211608887	1700
2.37722396851	1693
2.38210296631	1706
2.38717007637	1698
2.39205312729	1688
2.39736700058	1706
2.4023680687	1708
2.40730500221	1686
2.41211414337	1668
2.41724205017	1678
2.42233109474	1708
2.42722606659	1693
2.43224310875	1686
2.43746709824	1701
2.44218301773	1701
2.44718909264	1696
2.45221996307	1707
2.45728111267	1722
2.46238493919	1720
2.46718215942	1722
2.47215509415	1738
2.47725701332	1741
2.48230099678	1754
2.48731207848	1780
2.49237108231	1794
2.49744701385	1785
2.50226902962	1775
2.50707912445	1762
2.51198410988	1733
2.51726102829	1705
2.5221991539	1682
2.52728700638	1689
2.5321700573	1689
2.53722596169	1664
2.54221105576	1634
2.54719305038	1635
2.55208396912	1633
2.55712199211	1627
2.56230711937	1617
2.56704616547	1606
2.57215499878	1607
2.57712006569	1609
2.58238506317	1587
2.58733510971	1549
2.59210896492	1565
2.5973739624	1452
2.60218501091	1272
2.60725617409	1226
2.61230301857	1406
2.61756396294	1779
2.62253713608	1880
2.62735700607	1619
2.63227200508	1422
2.63743495941	1634
2.64237308502	2092
2.6472671032	1904
2.65234613419	1443
2.65731716156	1328
2.66229295731	1485
2.66730594635	1560
2.67224311829	1554
2.67714905739	1558
2.68255805969	1573
2.68744802475	1590
2.69232606888	1595
2.69729304314	1583
2.702491045	1576
2.70730805397	1574
2.71228098869	1583
2.71750497818	1583
2.72238111496	1572
2.72745704651	1562
2.73266005516	1560
2.73755812645	1561
2.74255299568	1566
2.74751710892	1557
2.75291204453	1542
2.75764298439	1543
2.76265907288	1547
2.76777696609	1530
2.7726931572	1519
2.77797198296	1516
2.78273797035	1510
2.78762507439	1493
2.79259109497	1479
2.79757809639	1467
2.80270409584	1470
2.80771303177	1473
2.81274294853	1456
2.81782793999	1449
2.82281208038	1454
2.82779717445	1467
2.83267807961	1477
2.83796095848	1493
2.84294295311	1510
2.8478269577	1522
2.85265517235	1542
2.85795402527	1571
2.86286616325	1594
2.86787414551	1608
2.87287998199	1617
2.8779001236	1637
2.88284301758	1655
2.8879430294	1659
2.89299106598	1664
2.89819908142	1661
2.90303111076	1660
2.90788197517	1668
2.91295194626	1666
2.91810107231	1669
2.92315196991	1669
2.92785215378	1664
2.93313694	1662
2.93816304207	1654
2.94304513931	1649
2.94791316986	1660
2.95313000679	1661
2.95798897743	1657
2.96294307709	1662
2.96787905693	1664
2.97295212746	1650
2.9779150486	1640
2.98287200928	1637
2.98799109459	1636
2.99270606041	1644
2.99804711342	1642
3.0027821064	1639
3.00774717331	1646
3.01267194748	1648
3.01794314384	1639
3.02300810814	1641
3.02786707878	1640
3.03272914886	1639
3.03780198097	1638
3.04285407066	1647
3.04782915115	1644
3.05286312103	1635
3.05798411369	1632
3.06296110153	1641
3.06777310371	1645
3.07282614708	1644
3.07776403427	1660
3.08298802376	1665
3.08796596527	1663
3.09274816513	1673
3.09779500961	1690
3.10277414322	1706
3.10777807236	1719
3.11269307137	1729
3.11798214912	1721
3.12302398682	1710
3.12781095505	1690
3.13271594048	1671
3.13796210289	1650
3.14281201363	1638
3.14789199829	1624
3.15296196938	1610
3.15816497803	1600
3.16296195984	1600
3.16796994209	1603
3.17306995392	1598
3.17810416222	1589
3.18321013451	1587
3.18819999695	1577
3.19303417206	1572
3.19821500778	1575
3.20335698128	1556
3.20808410645	1508
3.21335315704	1462
3.21838116646	1270
3.22312498093	1085
3.22802805901	1062
3.23324298859	1229
3.23817515373	1536
3.24323916435	1625
3.24810194969	1407
3.25301504135	1384
3.25802993774	1887
3.26312613487	2487
3.26799297333	2199
3.27311205864	1596
3.27829194069	1428
3.2830619812	1554
3.28820610046	1615
3.29326200485	1585
3.29855012894	1576
3.30340194702	1597
3.30853915215	1608
3.31336712837	1591
3.31826901436	1581
3.32342910767	1577
3.32840514183	1579
3.33356595039	1575
3.33839797974	1565
3.34330201149	1567
3.34832596779	1566
3.35344314575	1562
3.35829997063	1551
3.36340403557	1538
3.36832499504	1522
3.37341403961	1513
3.37847900391	1511
3.38361501694	1507
3.38856315613	1495
3.3934969902	1473
3.39890408516	1455
3.40362215042	1431
3.40865516663	1401
3.41349816322	1384
3.41876912117	1376
3.42358899117	1369
3.42849707603	1364
3.43368506432	1371
3.43848514557	1376
3.4435031414	1383
3.44856405258	1392
3.45362305641	1418
3.4586250782	1446
3.46353602409	1474
3.46866703033	1499
3.47340106964	1532
3.47844696045	1575
3.48349499702	1605
3.48854613304	1636
3.4936439991	1667
3.49856209755	1687
3.50345301628	1714
3.50853300095	1737
3.51352000237	1748
3.51850509644	1756
3.52337002754	1768
3.52843213081	1777
3.53344607353	1783
3.53853702545	1782
3.54346299171	1783
3.54880309105	1784
3.55366706848	1778
3.55887913704	1770
3.56362104416	1769
3.56865000725	1767
3.57384109497	1757
3.57881617546	1746
3.58369612694	1743
3.58874607086	1739
3.59389996529	1732
3.59877300262	1724
3.60383009911	1712
3.60870313644	1711
3.61382317543	1712
3.61885213852	1705
3.62362194061	1702
3.62866210938	1697
3.63382315636	1701
3.63885211945	1701
3.64362716675	1701
3.64880299568	1698
3.65386295319	1693
3.65871810913	1696
3.66367006302	1702
3.6687309742	1702
3.67389297485	1702
3.67885804176	1706
3.68387699127	1704
3.6886780262	1703
3.69370603561	1710
3.69868516922	1714
3.70367002487	1711
3.70855808258	1705
3.7138941288	1706
3.71864700317	1710
3.7236430645	1704
3.72859215736	1699
3.73378801346	1699
3.73884916306	1702
3.74378800392	1709
3.74881315231	1699
3.75368309021	1690
3.75890398026	1695
3.76368403435	1694
3.76880407333	1688
3.77398896217	1685
3.7790081501	1689
3.78380203247	1690
3.78896403313	1689
3.79389095306	1681
3.79897403717	1679
3.80392694473	1679
3.80894708633	1678
3.81392216682	1678
3.81896805763	1671
3.82391405106	1664
3.8289539814	1670
3.83406615257	1672
3.83917307854	1673
3.84383916855	1672
3.84882211685	1665
3.85403203964	1656
3.85908699036	1657
3.86403393745	1660
3.86924099922	1660
3.87398505211	1670
3.8790230751	1681
3.88418102264	1674
3.88905310631	1665
3.89402699471	1675
3.89921307564	1685
3.90408396721	1684
3.90906214714	1695
3.91419696808	1715
3.91931414604	1715
3.92419099808	1696
3.92920613289	1694
3.93419599533	1682
3.93905806541	1655
3.94409799576	1645
3.94924807549	1639
3.95431399345	1627
3.95912599564	1627
3.96413612366	1630
3.96913003922	1627
3.9741230011	1628
3.97921013832	1621
3.98422503471	1614
3.98917508125	1608
3.99436211586	1602
3.99927616119	1597
4.00420808792	1600
4.0093331337	1605
4.01461410522	1595
4.019520998	1464
4.02441310883	1156
4.02959108353	874
4.03425598145	757
4.03917217255	900
4.04397797585	1089
4.04926514626	1066
4.05434012413	925
4.05922102928	1249
4.06417608261	2171
4.06904196739	2900
4.07413816452	2454
4.0792081356	1746
4.08417916298	1596
4.08920717239	1732
4.09419798851	1723
4.09919810295	1614
4.10416913033	1564
4.10920906067	1589
4.11448502541	1610
4.11949300766	1589
4.12427997589	1566
4.12912607193	1562
4.13435411453	1561
4.13930416107	1554
4.14423704147	1547
4.14953613281	1541
4.15442204475	1531
4.15941500664	1521
4.16444706917	1521
4.16945004463	1511
4.17449116707	1493
4.1793680191	1482
4.18454504013	1469
4.18962407112	1456
4.19456410408	1443
4.19956612587	1427
4.20459294319	1403
4.20979094505	1383
4.21479606628	1365
4.219602108	1342
4.22462010384	1323
4.2296860218	1312
4.23456001282	1303
4.23946714401	1300
4.24476599693	1307
4.24955010414	1322
4.25456595421	1336
4.25967001915	1354
4.26458501816	1379
4.26985311508	1404
4.27472710609	1430
4.27964496613	1463
4.28459310532	1490
4.28987908363	1520
4.29496908188	1552
4.29987597466	1580
4.30470204353	1595
4.30995607376	1618
4.31480312347	1638
4.31984114647	1654
4.32474899292	1671
4.32994508743	1690
4.33473515511	1696
4.33971309662	1698
4.34473109245	1708
4.34998512268	1711
4.35497903824	1702
4.35987401009	1701
4.36516308784	1693
4.37019014359	1677
4.37505197525	1674
4.38008904457	1682
4.38517713547	1679
4.39015316963	1666
4.39525914192	1660
4.40001296997	1660
4.40498113632	1650
4.40995311737	1643
4.41513609886	1640
4.42001914978	1640
4.42509698868	1642
4.43005204201	1635
4.43493914604	1625
4.43987703323	1621
4.44504094124	1626
4.45024394989	1622
4.45530700684	1617
4.46015715599	1623
4.46518397331	1627
4.47014498711	1625
4.47516012192	1625
4.48014807701	1627
4.48531913757	1629
4.49037504196	1637
4.49535608292	1641
4.50005602837	1646
4.50529408455	1642
4.51016306877	1646
4.51533913612	1648
4.52017116547	1648
4.52541017532	1649
4.53034305573	1650
4.53518009186	1653
4.54024004936	1658
4.54531097412	1652
4.55051398277	1648
4.55528306961	1650
4.56023406982	1647
4.56525707245	1646
4.57046294212	1648
4.57532811165	1654
4.58057999611	1654
4.58556509018	1653
4.59025502205	1654
4.59522509575	1662
4.60050296783	1671
4.60540604591	1673
4.61027693748	1689
4.61544704437	1695
4.62026596069	1688
4.62520194054	1676
4.63032007217	1675
4.6352660656	1662
4.64021897316	1637
4.6454231739	1624
4.65044116974	1617
4.65526509285	1614
4.66025400162	1620
4.66536903381	1620
4.67035007477	1616
4.67536497116	1617
4.68032002449	1607
4.68545103073	1593
4.69030213356	1589
4.69551610947	1590
4.70035600662	1592
4.70534205437	1590
4.71034812927	1594
4.71534705162	1586
4.72030901909	1505
4.72526502609	1230
4.73047494888	925
4.73523712158	719
4.74010801315	755
4.74514698982	934
4.74995112419	976
4.75497317314	874
4.75977611542	1135
4.76467394829	2036
4.76977014542	2922
4.77467608452	2695
4.77963399887	1941
4.78465604782	1622
4.78960204124	1723
4.79484009743	1748
4.79962515831	1635
4.80471301079	1559
4.80948710442	1570
4.81449508667	1593
4.81962704659	1584
4.82473397255	1569
4.82968616486	1557
4.83471417427	1546
4.83949112892	1541
4.84457707405	1541
4.84976196289	1533
4.85473203659	1526
4.85958313942	1522
4.86484313011	1507
4.86963510513	1495
4.87465000153	1493
4.87954306602	1485
4.88467597961	1475
4.88969302177	1462
4.89485907555	1445
4.89972400665	1429
4.90482711792	1418
4.90972113609	1397
4.914935112	1370
4.91990399361	1351
4.92492699623	1333
4.93013310432	1313
4.93500804901	1305
4.93995714188	1300
4.94508814812	1304
4.95016217232	1316
4.95506596565	1333
4.9600379467	1351
4.96513295174	1378
4.97035694122	1408
4.97524213791	1429
4.98019599915	1451
4.98537397385	1475
4.99043512344	1510
4.99528813362	1549
5.00003004074	1571
5.00523304939	1591
5.01014208794	1618
5.01527905464	1640
5.02014493942	1656
5.02519512177	1663
5.03015708923	1670
5.035364151	1673
5.04011106491	1681
5.04508495331	1690
5.05011606216	1687
5.05508112907	1680
5.05997395515	1687
5.06510996819	1692
5.07033896446	1679
5.07518100739	1675
5.08022999763	1677
5.0853331089	1665
5.09013700485	1653
5.09520101547	1653
5.10015010834	1652
5.10512495041	1633
5.11044001579	1622
5.11541700363	1621
5.120262146	1613
5.12520313263	1608
5.13014006615	1602
5.13523602486	1595
5.14021205902	1598
5.14543509483	1601
5.15029907227	1595
5.15529799461	1587
5.16039013863	1587
5.16546106339	1586
5.17039108276	1596
5.17538499832	1596
5.1802520752	1594
5.18530511856	1594
5.19040298462	1601
5.19528603554	1605
5.20033597946	1601
5.20550203323	1599
5.21035695076	1611
5.21518611908	1622
5.22028017044	1620
5.22519111633	1620
5.23051095009	1626
5.23543095589	1621
5.24028611183	1627
5.24518799782	1647
5.25029015541	1667
5.25527310371	1678
5.26018095016	1689
5.26539206505	1683
5.27039408684	1677
5.2752020359	1676
5.28015613556	1647
5.28533506393	1602
5.29012393951	1579
5.29537701607	1589
5.30014801025	1600
5.30513596535	1590
5.31012415886	1587
5.31523013115	1581
5.32009100914	1569
5.32509899139	1557
5.33038496971	1556
5.33517694473	1557
5.33999109268	1555
5.34538817406	1558
5.35038399696	1563
5.35521197319	1569
5.36022210121	1458
5.36550498009	1178
5.37034702301	927
5.37515997887	763
5.38003802299	772
5.38509917259	759
5.3900821209	590
5.39501905441	469
5.39965415001	986
5.40453910828	2176
5.40965104103	2984
5.41467094421	2412
5.41961503029	1637
5.42475295067	1529
5.42972993851	1731
5.43460798264	1721
5.43962001801	1584
5.44466900826	1541
5.44977498055	1574
5.45472598076	1588
5.45976209641	1569
5.46463704109	1547
5.46979212761	1541
5.47481107712	1540
5.47983694077	1540
5.4850230217	1530
5.48982596397	1524
5.49486398697	1525
5.50007295609	1522
5.5050740242	1516
5.50988316536	1507
5.51503014565	1487
5.51990199089	1467
5.52470612526	1459
5.52987408638	1457
5.53485202789	1433
5.54002809525	1405
5.54487109184	1384
5.55005311966	1363
5.55485200882	1339
5.55982995033	1315
5.56481194496	1288
5.5699801445	1263
5.57501602173	1260
5.58007717133	1252
5.58498096466	1252
5.59012508392	1259
5.59517717361	1276
5.60012412071	1298
5.60535097122	1320
5.6103720665	1357
5.61509108543	1396
5.62006902695	1432
5.62513804436	1479
5.63005805016	1524
5.63512802124	1557
5.64013910294	1595
5.64542508125	1636
5.65009498596	1669
5.6551990509	1701
5.66008806229	1724
5.665320158	1739
5.67029500008	1740
5.67525696754	1746
5.68014907837	1754
5.68537712097	1763
5.69023704529	1773
5.69540309906	1778
5.70019602776	1774
5.70544815063	1764
5.71026301384	1767
5.71525812149	1765
5.72031497955	1750
5.7255051136	1737
5.7305829525	1730
5.73544812202	1733
5.74033403397	1730
5.74525213242	1715
5.75050210953	1705
5.75541496277	1709
5.76036810875	1707
5.76567912102	1703
5.77061915398	1697
5.77554798126	1691
5.78074502945	1683
5.78565502167	1685
5.79054903984	1694
5.79556417465	1695
5.80062413216	1689
5.80559706688	1688
5.81083893776	1691
5.81570410728	1689
5.82073497772	1682
5.82581996918	1686
5.83080506325	1692
5.83571100235	1697
5.8406291008	1703
5.84579515457	1722
5.85083508492	1718
5.85581111908	1711
5.86077713966	1723
5.86579704285	1735
5.87090206146	1747
5.87578010559	1769
5.88102507591	1788
5.8861181736	1772
5.89099502563	1759
5.89582014084	1766
5.90085506439	1747
5.90604400635	1706
5.91112995148	1688
5.9160490036	1680
5.920992136	1674
5.92603516579	1668
5.9309220314	1673
5.93580007553	1666
5.94096517563	1648
5.94605898857	1654
5.95117902756	1649
5.9560110569	1633
5.96104812622	1622
5.9661860466	1612
5.97117209435	1629
5.97618293762	1664
5.98144507408	1591
5.98616695404	1309
5.99116015434	1016
5.99616312981	839
6.00115394592	856
6.00613808632	906
6.01089310646	750
6.01582694054	626
6.02057409286	978
6.02543401718	1904
6.03056907654	2887
6.03558397293	2617
6.04059195518	1814
6.045814991	1536
6.05062508583	1691
6.05544614792	1754
6.06053996086	1676
6.06577515602	1620
6.07054615021	1626
6.07553696632	1650
6.08053898811	1645
6.08549404144	1634
6.09059500694	1613
6.09556102753	1597
6.10079097748	1594
6.1057369709	1604
6.11067795753	1605
6.11560606956	1595
6.12072396278	1580
6.12565302849	1568
6.13085508347	1562
6.13577198982	1558
6.14077210426	1550
6.14577102661	1533
6.15097403526	1519
6.15596294403	1499
6.16067504883	1480
6.16585111618	1453
6.17073512077	1425
6.17563915253	1391
6.18069195747	1367
6.18579912186	1350
6.19069314003	1337
6.19554805756	1317
6.20065903664	1301
6.20564413071	1298
6.21064305305	1315
6.2156920433	1339
6.22069406509	1361
6.22564601898	1375
6.23085403442	1398
6.23567914963	1435
6.24049115181	1480
6.24577593803	1528
6.25075316429	1573
6.25573611259	1610
6.26077413559	1640
6.26585507393	1668
6.27063298225	1700
6.27553200722	1735
6.28063797951	1747
6.28567409515	1762
6.29060101509	1774
6.29551506042	1775
6.30055999756	1774
6.30559897423	1776
6.3108291626	1781
6.31560397148	1785
6.32051706314	1778
6.32561898232	1782
6.33054995537	1778
6.33550405502	1764
6.34053516388	1762
6.34572696686	1767
6.35070514679	1764
6.35555911064	1750
6.36048197746	1739
6.36553001404	1732
6.37072205544	1726
6.37549209595	1728
6.38067317009	1726
6.38573598862	1714
6.39055514336	1716
6.39555716515	1720
6.40067911148	1707
6.40546298027	1692
6.41077208519	1691
6.4156601429	1694
6.42055916786	1709
6.42553114891	1716
6.43065595627	1706
6.4355931282	1700
6.44061303139	1708
6.44572114944	1713
6.45075106621	1711
6.45556998253	1708
6.46059012413	1714
6.46561002731	1718
6.47073197365	1717
6.47565317154	1722
6.48094797134	1722
6.48579406738	1725
6.49066710472	1741
6.49574112892	1763
6.50075316429	1790
6.50579404831	1794
6.51088094711	1771
6.51566910744	1765
6.52064394951	1762
6.52586698532	1729
6.53084015846	1691
6.53570413589	1685
6.54085111618	1686
6.54567599297	1687
6.55055713654	1670
6.55554699898	1662
6.56076598167	1664
6.56575417519	1652
6.57061100006	1635
6.57566213608	1634
6.58046507835	1634
6.58563995361	1637
6.59044194221	1630
6.59551596642	1636
6.60041213036	1660
6.60568094254	1550
6.61059713364	1250
6.6155500412	939
6.62063908577	785
6.62561798096	853
6.63053607941	866
6.63528108597	660
6.64007115364	634
6.64501404762	1231
6.64993405342	2314
6.65985798836	2455
6.6651301384	1727
6.67003202438	1591
6.67491006851	1735
6.67996001244	1750
6.68518400192	1662
6.69004106522	1614
6.69510102272	1634
6.70012807846	1649
6.70502614975	1634
6.71015715599	1614
6.71513104439	1606
6.72021102905	1597
6.72514605522	1598
6.73040103912	1593
6.7351500988	1584
6.74016094208	1579
6.74533009529	1573
6.75027799606	1563
6.75529313087	1553
6.76028609276	1544
6.76523113251	1536
6.77021002769	1519
6.77545905113	1501
6.78028798103	1483
6.78555107117	1458
6.79057407379	1438
6.79543614388	1416
6.80041313171	1391
6.8056230545	1365
6.81069803238	1349
6.81559300423	1335
6.8204729557	1329
6.82559609413	1332
6.83044409752	1339
6.83563995361	1349
6.84061813354	1363
6.84578514099	1384
6.85063695908	1408
6.85560297966	1439
6.86062598228	1474
6.86567997932	1507
6.87073516846	1542
6.87564706802	1577
6.88072109222	1619
6.88581109047	1652
6.89059901237	1674
6.89558815956	1698
6.90074801445	1716
6.90565705299	1726
6.91077399254	1739
6.91572904587	1747
6.92060208321	1750
6.92566299438	1757
6.93081903458	1753
6.93573904037	1748
6.94059300423	1759
6.94587898254	1762
6.95082306862	1748
6.95567893982	1734
6.96062207222	1726
6.9657959938	1722
6.97080516815	1709
6.97581005096	1698
6.98075008392	1701
6.98583912849	1703
6.99069714546	1700
6.99571895599	1697
7.00073003769	1686
7.00605010986	1674
7.01111006737	1673
7.01584506035	1672
7.02112793922	1661
7.02632403374	1662
7.03133416176	1668
7.03618311882	1660
7.04131412506	1659
7.04616713524	1661
7.0511341095	1660
7.05609512329	1660
7.06138014793	1663
7.06639313698	1659
7.07134413719	1659
7.07605004311	1661
7.08103013039	1667
7.08615112305	1670
7.09124994278	1670
7.09627008438	1673
7.10145902634	1670
7.10643815994	1668
7.11126208305	1680
7.11630606651	1687
7.12136602402	1700
7.12626409531	1715
7.13126897812	1732
7.13625502586	1715
7.14129304886	1704
7.14634895325	1710
7.15112304688	1693
7.15621495247	1644
7.16150808334	1619
7.16655111313	1619
7.17128205299	1616
7.17626810074	1613
7.18141794205	1621
7.18641996384	1628
7.19126915932	1610
7.19622802734	1590
7.20127511024	1582
7.20630502701	1574
7.21141505241	1574
7.21634411812	1571
7.22152304649	1579
7.22660303116	1596
7.23164916039	1595
7.23648405075	1393
7.24149107933	1084
7.24649214745	802
7.25126099586	696
7.25610208511	726
7.26119613647	610
7.26609802246	386
7.27106499672	573
7.27593517303	1490
7.28095817566	2684
7.28611898422	2865
7.29109597206	2075
7.29594612122	1579
7.30115699768	1664
7.30610203743	1757
7.31092405319	1671
7.31599998474	1578
7.3211350441	1572
7.32598114014	1594
7.33086895943	1591
7.33597111702	1570
7.34107613564	1547
7.34602499008	1536
7.35112404823	1536
7.3560230732	1531
7.36105298996	1520
7.36616110802	1514
7.3711681366	1515
7.37603998184	1507
7.38125610352	1497
7.38614106178	1481
7.39119815826	1473
7.39611411095	1461
7.40132808685	1446
7.40626502037	1422
7.41131210327	1404
7.41622805595	1383
7.42141294479	1349
7.42618703842	1323
7.4312851429	1299
7.4361550808	1276
7.44134712219	1252
7.44636797905	1233
7.4512629509	1224
7.45623993874	1213
7.46134996414	1220
7.4664440155	1238
7.47144293785	1252
7.47640800476	1275
7.48136115074	1297
7.48624610901	1321
7.49126911163	1357
7.49638915062	1407
7.50152897835	1450
7.50660610199	1489
7.51146912575	1531
7.51645612717	1566
7.52152895927	1596
7.52650308609	1635
7.5314950943	1654
7.53647494316	1666
7.54165816307	1679
7.54648303986	1691
7.55168008804	1691
7.55659914017	1691
7.56173014641	1700
7.56679201126	1698
7.57166409492	1688
7.57663202286	1680
7.58161997795	1682
7.58688497543	1678
7.59177207947	1674
7.5966770649	1675
7.60173606873	1668
7.60656905174	1656
7.61171007156	1647
7.61672997475	1643
7.62178897858	1640
7.62694501877	1642
7.63182902336	1637
7.63670706749	1626
7.64169502258	1627
7.6469180584	1629
7.65188503265	1622
7.6568300724	1610
7.66207194328	1609
7.66719794273	1614
7.67198300362	1617
7.67712306976	1615
7.68216896057	1607
7.6871650219	1603
7.69211101532	1611
7.69725894928	1625
7.70201015472	1618
7.70701813698	1611
7.71201515198	1618
7.71720910072	1625
7.72224497795	1627
7.72726011276	1628
7.73216414452	1625
7.73707008362	1623
7.74218416214	1626
7.74720406532	1628
7.75213098526	1620
7.75732111931	1626
7.76219105721	1645
7.76715016365	1655
7.77228808403	1650
7.77741909027	1652
7.78246617317	1657
7.78734612465	1666
7.79227805138	1682
7.79738306999	1697
7.80260300636	1715
7.8073580265	1723
7.81248903275	1711
7.81761312485	1703
7.82259702682	1696
7.82761311531	1677
7.83267498016	1643
7.83757400513	1627
7.84259605408	1626
7.84759712219	1625
7.85248994827	1622
7.85750007629	1621
7.8628411293	1628
7.86778402328	1616
7.87264895439	1601
7.87788009644	1597
7.88266515732	1597
7.88765096664	1598
7.89268803596	1600
7.89804410934	1606
7.90301012993	1614
7.90788817406	1529
7.91291713715	1236
7.91779398918	926
7.92270708084	741
7.92766213417	798
7.93248796463	931
7.93749904633	848
7.9424829483	708
7.94722914696	1004
7.95206999779	1937
7.9570441246	2884
7.96226596832	2601
7.96726298332	1821
7.97207307816	1553
7.97721505165	1704
7.98198008537	1767
7.98724508286	1673
7.99207210541	1608
7.99727416039	1625
8.0022251606	1650
8.00720906258	1640
8.01216411591	1622
8.01720905304	1613
8.02214217186	1608
8.02720212936	1604
8.03219294548	1601
8.03737306595	1596
8.04211306572	1591
8.04716300964	1587
8.05235600471	1573
8.0571949482	1559
8.06239700317	1552
8.0673930645	1548
8.07217812538	1537
8.07721209526	1524
8.08244895935	1508
8.08759403229	1486
8.09245300293	1462
8.09761214256	1441
8.10245203972	1411
8.10737609863	1383
8.11263799667	1356
8.11769795418	1333
8.12250494957	1320
8.12753605843	1320
8.13272094727	1318
8.13761806488	1323
8.14279294014	1342
8.14780712128	1367
8.1526761055	1385
8.1578810215	1414
8.16276597977	1455
8.16764497757	1493
8.1726629734	1528
8.1779050827	1574
8.18290901184	1611
8.18780398369	1645
8.19277906418	1686
8.19772696495	1726
8.20269012451	1757
8.20788598061	1777
8.21281313896	1788
8.21800112724	1795
8.22300815582	1801
8.22780895233	1819
8.2327439785	1825
8.2378051281	1816
8.24285411835	1819
8.24798107147	1825
8.25318813324	1817
8.25819015503	1797
8.26292395592	1790
8.26788115501	1796
8.27294015884	1796
8.27818012238	1793
8.28313207626	1786
8.2878780365	1775
8.29294896126	1771
8.29780101776	1759
8.30286312103	1744
8.30769300461	1742
8.3127951622	1744
8.31806898117	1744
8.32292199135	1741
8.32793807983	1740
8.33311796188	1736
8.33815002441	1732
8.34309005737	1737
8.34816503525	1744
8.35312604904	1741
8.35810399055	1736
8.36309313774	1738
8.36821699142	1739
8.37305498123	1739
8.37826514244	1730
8.38315296173	1729
8.38814210892	1731
8.39308810234	1736
8.39819812775	1740
8.40315413475	1736
8.40817093849	1733
8.41317415237	1734
8.41818404198	1733
8.42333006859	1733
8.4283759594	1737
8.43352413177	1739
8.43852806091	1733
8.4434800148	1733
8.44829106331	1739
8.45345807076	1742
8.45839905739	1754
8.46339297295	1762
8.4683380127	1766
8.47357416153	1765
8.47829699516	1788
8.4833240509	1782
8.48823404312	1766
8.49360203743	1760
8.49842095375	1739
8.50328207016	1701
8.50830602646	1683
8.51317596436	1684
8.51821804047	1680
8.52314805984	1669
8.52827906609	1671
8.53349113464	1674
8.53824996948	1663
8.54321813583	1649
8.54847502708	1644
8.55345797539	1644
8.55850601196	1644
8.56341409683	1643
8.56856393814	1637
8.57345914841	1643
8.57864403725	1636
8.58351516724	1448
8.5883641243	1115
8.59374308586	814
8.59834814072	753
8.60314917564	879
8.60795116425	897
8.61289811134	708
8.61794710159	772
8.62276506424	1420
8.62770199776	2492
8.63279795647	2940
8.63765311241	2307
8.6426320076	1681
8.64772605896	1628
8.65274500847	1735
8.65797305107	1719
8.66302394867	1646
8.66793203354	1622
8.67296910286	1630
8.67808794975	1632
8.68292999268	1618
8.68788814545	1603
8.69318294525	1592
8.69809412956	1589
8.70309615135	1575
8.70812106133	1572
8.71306014061	1572
8.71823215485	1559
8.72338414192	1548
8.72824406624	1548
8.73329901695	1545
8.73834300041	1525
8.74327397346	1514
8.74817013741	1507
8.75349116325	1487
8.75832295418	1468
8.76330113411	1456
8.76837396622	1442
8.77314114571	1415
8.7783870697	1388
8.78347611427	1359
8.78830909729	1339
8.7933280468	1337
8.79852104187	1342
8.80349707603	1335
8.80834102631	1328
8.81353116035	1340
8.81825304031	1360
8.82322406769	1385
8.82825016975	1409
8.83336305618	1437
8.8383769989	1466
8.84346294403	1504
8.84830307961	1543
8.85335206985	1568
8.85840296745	1600
8.8634929657	1634
8.86863613129	1660
8.87340211868	1686
8.87861299515	1702
8.88353013992	1712
8.88837599754	1717
8.89361906052	1719
8.89871096611	1724
8.90357303619	1729
8.90872001648	1729
8.91356897354	1729
8.91849398613	1725
8.92351198196	1719
8.92861199379	1720
8.93355607986	1711
8.93864512444	1696
8.94360804558	1691
8.94863796234	1690
8.95350694656	1684
8.9584980011	1674
8.96362304688	1663
8.9686331749	1653
8.97378897667	1643
8.97861099243	1646
8.98353600502	1644
8.98857116699	1632
8.99372816086	1625
8.99872994423	1621
9.00362300873	1611
9.00866413116	1609
9.01352715492	1613
9.01869010925	1615
9.02355098724	1614
9.02879905701	1616
9.03390002251	1614
9.03873300552	1610
9.04383015633	1616
9.04879593849	1609
9.05398511887	1600
9.05899214745	1604
9.0639770031	1605
9.0689740181	1608
9.07383108139	1610
9.07907915115	1608
9.08411717415	1607
9.0888531208	1605
9.0940310955	1611
9.09902596474	1613
9.10375595093	1606
9.10878896713	1603
9.11397004128	1601
9.11898803711	1592
9.12389802933	1587
9.12884116173	1592
9.13389801979	1601
9.13872694969	1601
9.14379310608	1596
9.14868998528	1598
9.15389108658	1606
9.15893101692	1603
9.16373610497	1600
9.16873216629	1614
9.17393898964	1628
9.17883706093	1642
9.18386697769	1646
9.18874907494	1626
9.19379806519	1631
9.1987631321	1630
9.20384502411	1597
9.20874595642	1566
9.21388411522	1557
9.21888613701	1550
9.2238509655	1557
9.22886395454	1556
9.23402714729	1553
9.23889303207	1545
9.24390101433	1543
9.24881505966	1540
9.25401306152	1525
9.25878095627	1518
9.2637989521	1520
9.2689139843	1519
9.27412700653	1529
9.27913498878	1545
9.28418302536	1470
9.28893494606	1181
9.29396796227	882
9.299036026	688
9.30374217033	700
9.30867004395	692
9.31368803978	487
9.31842803955	298
9.32334208488	732
9.32822108269	1833
9.33337712288	2849
9.33823108673	2546
9.34334516525	1753
9.34823894501	1502
9.35321497917	1668
9.35845398903	1709
9.36333203316	1607
9.36841511726	1539
9.37322115898	1551
9.37842202187	1568
9.38336801529	1547
9.3881289959	1521
9.39328098297	1516
9.39840507507	1523
9.40335416794	1529
9.40819907188	1525
9.41330003738	1512
9.41817998886	1493
9.4231979847	1483
9.42813706398	1487
9.43335008621	1485
9.43851208687	1472
9.44340705872	1459
9.44831395149	1444
9.45337104797	1430
9.45856809616	1414
9.46345996857	1400
9.46862912178	1377
9.47344493866	1344
9.47842907906	1314
9.48342394829	1281
9.48835611343	1251
9.49352908134	1229
9.49854302406	1211
9.50345897675	1200
9.50835704803	1187
9.51363611221	1188
9.51864600182	1199
9.52341103554	1212
9.52850604057	1228
9.53358817101	1257
9.53847694397	1287
9.54335713387	1329
9.54840993881	1385
9.55339002609	1432
9.55854201317	1470
9.56357717514	1520
9.56833815575	1559
9.57331514359	1587
9.57850193977	1614
9.58354496956	1641
9.58832907677	1661
9.59346008301	1678
9.59829211235	1689
9.60324311256	1692
9.60833597183	1687
9.61343717575	1689
9.61862802505	1693
9.62357711792	1694
9.62867212296	1691
9.63351798058	1690
9.63851499557	1681
9.64359998703	1676
9.64873814583	1685
9.65386795998	1682
9.65874195099	1675
9.6638841629	1672
9.66875696182	1659
9.67391896248	1654
9.67893099785	1658
9.68385195732	1652
9.68878817558	1640
9.69389295578	1641
9.69885015488	1643
9.70385408401	1639
9.70886397362	1637
9.71376109123	1633
9.71904802322	1636
9.72381496429	1635
9.72878599167	1635
9.73388814926	1632
9.73886108398	1631
9.74390602112	1633
9.74878311157	1639
9.75382113457	1646
9.75875496864	1644
9.76392602921	1645
9.76874899864	1648
9.77400398254	1646
9.77898216248	1653
9.78373408318	1658
9.78877997398	1658
9.7938170433	1655
9.79884696007	1658
9.80365014076	1662
9.80883312225	1659
9.81390714645	1654
9.81870913506	1656
9.82372713089	1660
9.82879710197	1659
9.83404803276	1658
9.83881306648	1660
9.84386205673	1663
9.84885811806	1664
9.85384607315	1662
9.85894608498	1668
9.86391496658	1681
9.86889600754	1682
9.87414598465	1683
9.87898516655	1694
9.88402795792	1710
9.88925695419	1729
9.89432001114	1740
9.89914703369	1726
9.90415096283	1716
9.90946316719	1719
9.91418099403	1703
9.91908597946	1661
9.92409610748	1641
9.92929911613	1642
9.93411302567	1645
9.93918204308	1640
9.9441921711	1635
9.94932508469	1636
9.9541311264	1628
9.95928502083	1622
9.96414613724	1618
9.96940398216	1612
9.97426509857	1610
9.97924900055	1613
9.98425102234	1618
9.98956799507	1622
9.99456715584	1589
9.99951004982	1334
10.0042510033	998
10.009223938	774
10.0142409801	784
10.0190811157	946
10.0238890648	912
10.0288419724	702
10.0336740017	818
10.0385971069	1575
10.0436170101	2674
10.0487220287	2785
10.0536401272	1997
10.0588371754	1537
10.0636701584	1637
10.068582058	1760
10.0735509396	1709
10.0785570145	1631
10.0837330818	1628
10.0886631012	1653
10.0938370228	1653
10.09871912	1636
10.1037559509	1618
10.108656168	1610
10.1137981415	1609
10.1188540459	1609
10.1237621307	1602
10.1286180019	1595
10.1336710453	1587
10.1386640072	1582
10.1437020302	1580
10.1487641335	1572
10.1538071632	1559
10.158700943	1548
10.1635529995	1534
10.168776989	1522
10.1738049984	1505
10.1788561344	1475
10.1837589741	1443
10.1888589859	1417
10.1937661171	1390
10.1989910603	1367
10.2036869526	1340
10.208753109	1319
10.2138841152	1308
10.2189090252	1298
10.2235841751	1287
10.2285621166	1298
10.2337169647	1314
10.2387270927	1334
10.2435460091	1360
10.2488350868	1398
10.2537059784	1445
10.2587480545	1496
10.2636890411	1540
10.2688369751	1580
10.2739090919	1627
10.2789390087	1669
10.2836661339	1703
10.2887330055	1731
10.2939450741	1762
10.2990250587	1785
10.3040010929	1794
10.3091781139	1797
10.3140189648	1804
10.3190670013	1808
10.3239941597	1809
10.3290510178	1816
10.3340730667	1818
10.3390741348	1810
10.3439991474	1808
10.3489890099	1804
10.3540260792	1792
10.3590540886	1790
10.3639819622	1792
10.3691780567	1783
10.3742079735	1770
10.3789889812	1766
10.3840229511	1764
10.3891460896	1760
10.3944170475	1757
10.3992991447	1754
10.4042341709	1748
10.4092650414	1745
10.4141860008	1732
10.4193410873	1722
10.4243910313	1716
10.4295589924	1716
10.4345929623	1718
10.4393820763	1719
10.4443571568	1716
10.4495940208	1716
10.4543931484	1717
10.4594910145	1709
10.46459198	1709
10.4695060253	1705
10.4744310379	1704
10.4794709682	1702
10.4845731258	1702
10.4897019863	1704
10.4946711063	1706
10.4995629787	1711
10.5044500828	1720
10.5098080635	1716
10.5146501064	1709
10.5195791721	1711
10.5246050358	1710
10.5298290253	1708
10.5346620083	1698
10.5396330357	1693
10.5446131229	1699
10.5496931076	1704
10.5546021461	1697
10.5596809387	1700
10.5646309853	1710
10.5696880817	1695
10.5748541355	1684
10.5797481537	1682
10.5847661495	1686
10.589851141	1683
10.5946860313	1677
10.5996830463	1683
10.6045510769	1683
10.6096799374	1683
10.6146559715	1680
10.6197471619	1677
10.6246721745	1674
10.6296970844	1674
10.6347351074	1670
10.6398720741	1662
10.6447210312	1663
10.6497430801	1665
10.6546521187	1665
10.6595230103	1676
10.6646931171	1679
10.6696929932	1671
10.6748900414	1668
10.6798429489	1675
10.6847491264	1683
10.6898200512	1679
10.6949579716	1689
10.7000181675	1707
10.7047441006	1701
10.7100701332	1689
10.7148489952	1681
10.7199921608	1666
10.7250781059	1651
10.7302601337	1636
10.7354431152	1628
10.740128994	1620
10.7454521656	1618
10.7501370907	1628
10.7551829815	1629
10.7601461411	1625
10.7652521133	1614
10.7702291012	1604
10.7753419876	1596
10.7801930904	1593
10.7852461338	1598
10.7904641628	1604
10.7953190804	1610
10.8000750542	1604
10.8052611351	1468
10.8103981018	1150
10.8150920868	828
10.8200490475	694
10.8252210617	803
10.8301980495	848
10.8350031376	626
10.8397710323	521
10.8447229862	1020
10.8496279716	2070
10.8549089432	2908
10.859621048	2498
10.864825964	1741
10.8697471619	1547
10.8746509552	1692
10.8797011375	1734
10.8847661018	1648
10.8898589611	1592
10.8947501183	1605
10.8995730877	1624
10.9046289921	1611
10.9096479416	1586
10.9147830009	1583
10.9196310043	1583
10.9248170853	1579
10.9297990799	1575
10.9347610474	1569
10.9395170212	1562
10.9447290897	1555
10.9496409893	1549
10.9545061588	1538
10.9595201015	1528
10.9647819996	1519
10.9695391655	1506
10.974542141	1491
10.9795000553	1483
10.9845211506	1463
10.9895610809	1441
10.9945831299	1418
10.9995560646	1393
11.0046510696	1366
11.0098590851	1341
11.0150511265	1318
11.0197279453	1305
11.024764061	1298
11.0297341347	1295
11.0346670151	1300
11.039755106	1308
11.0446801186	1329
11.0497281551	1352
11.0547130108	1374
11.0596859455	1405
11.0646071434	1443
11.0696880817	1485
11.0747981071	1529
11.0796480179	1573
11.0847110748	1610
11.0897700787	1635
11.0945580006	1666
11.0996601582	1693
11.1045329571	1712
11.1097021103	1724
11.1150360107	1743
11.1196141243	1752
11.1245470047	1750
11.1296830177	1757
11.1346361637	1759
11.1396250725	1758
11.1447329521	1762
11.1498980522	1758
11.1546549797	1748
11.1596240997	1739
11.1647069454	1739
11.1697609425	1731
11.1750240326	1725
11.179929018	1722
11.1847281456	1717
11.1897161007	1706
11.1946949959	1698
11.1996099949	1692
11.2046611309	1682
11.2098841667	1679
11.2146921158	1677
11.2196350098	1674
11.2246689796	1668
11.2298109531	1658
11.2348220348	1659
11.2396271229	1666
11.2448041439	1660
11.249655962	1654
11.2547459602	1657
11.2597661018	1657
11.2648410797	1660
11.2700209618	1653
11.2750761509	1652
11.2799170017	1657
11.2848119736	1658
11.2900221348	1655
11.2949981689	1657
11.2998700142	1667
11.3048331738	1671
11.3097720146	1671
11.3148090839	1663
11.3198421001	1651
11.3249261379	1656
11.3301169872	1662
11.3351931572	1657
11.339892149	1654
11.3448810577	1656
11.3500781059	1660
11.3549351692	1660
11.3599960804	1659
11.3649270535	1659
11.3699810505	1648
11.3750510216	1646
11.3799819946	1649
11.3850631714	1648
11.3902449608	1644
11.3952610493	1645
11.4000210762	1648
11.4049651623	1645
11.4101071358	1641
11.4149680138	1640
11.4202101231	1639
11.4253499508	1636
11.4303481579	1638
11.4351661205	1632
11.4400789738	1634
11.4453151226	1640
11.4503901005	1640
11.4554300308	1637
11.4602620602	1642
11.4651751518	1647
11.4701740742	1646
11.4751319885	1650
11.4801909924	1652
11.485378027	1666
11.490429163	1679
11.4952771664	1675
11.5001721382	1661
11.5052800179	1652
11.5103361607	1640
11.5151600838	1624
11.5201931	1613
11.5253961086	1605
11.5301640034	1606
11.5351331234	1605
11.5403180122	1610
11.5453550816	1611
11.5504300594	1597
11.5552611351	1584
11.560311079	1579
11.5653309822	1581
11.5704209805	1577
11.5755209923	1574
11.5803339481	1578
11.5854599476	1589
11.5902440548	1589
11.5952730179	1485
11.600372076	1170
11.6054291725	842
11.6102931499	646
11.6152880192	712
11.6198649406	804
11.6246819496	659
11.6297140121	498
11.6345191002	910
11.6394309998	1904
11.6450190544	2870
11.6492710114	2640
11.6542651653	1870
11.6593101025	1577
11.6643340588	1709
11.6693029404	1747
11.6744849682	1648
11.6793520451	1583
11.6843249798	1589
11.6893470287	1604
11.6943490505	1596
11.6993629932	1576
11.7042291164	1566
11.7094969749	1566
11.7142801285	1563
11.7192640305	1553
11.7242290974	1545
11.7293629646	1544
11.7342979908	1539
11.7392640114	1520
11.7442250252	1503
11.7491900921	1501
11.7542779446	1491
11.7592351437	1481
11.7641210556	1465
11.769423008	1449
11.7741680145	1429
11.779073	1408
11.7840650082	1389
11.7892391682	1365
11.7941300869	1336
11.7991890907	1311
11.8041770458	1292
11.8089711666	1273
11.8143100739	1260
11.8191230297	1251
11.8240990639	1251
11.829324007	1268
11.8343231678	1280
11.8390891552	1292
11.8442649841	1321
11.8492641449	1348
11.8541910648	1376
11.8593120575	1417
11.8641531467	1467
11.8690669537	1510
11.8740839958	1545
11.879224062	1585
11.8840081692	1613
11.8891749382	1642
11.8942120075	1675
11.8990409374	1702
11.9040391445	1712
11.9092030525	1713
11.9142911434	1718
11.9191460609	1721
11.924090147	1724
11.9290790558	1727
11.934128046	1731
11.9390921593	1721
11.944122076	1713
11.9493310452	1715
11.9541909695	1716
11.9591021538	1706
11.9641640186	1699
11.9691770077	1688
11.9743151665	1680
11.9790451527	1685
11.9841001034	1682
11.9892809391	1669
11.9942221642	1657
11.9993140697	1657
12.0040531158	1651
12.0092020035	1642
12.0141031742	1639
12.0191791058	1638
12.0240149498	1634
12.0290269852	1627
12.0341999531	1626
12.0390610695	1621
12.0439550877	1621
12.0491549969	1620
12.0539550781	1619
12.0589950085	1619
12.0643110275	1624
12.0690500736	1622
12.0741760731	1625
12.0792160034	1631
12.0841369629	1639
12.0891160965	1637
12.0942950249	1631
12.0992619991	1627
12.1039521694	1626
12.1091570854	1631
12.1140880585	1634
12.1190209389	1638
12.1240420341	1639
12.12926507	1630
12.1341331005	1615
12.1391611099	1615
12.1442489624	1630
12.1492500305	1634
12.1542990208	1628
12.1592640877	1619
12.1642119884	1618
12.1695070267	1630
12.174530983	1638
12.1793291569	1634
12.1843190193	1625
12.1895551682	1632
12.1947059631	1646
12.1995630264	1654
12.2047290802	1651
12.2094471455	1656
12.2145130634	1678
12.2195360661	1687
12.2247350216	1673
12.2296380997	1671
12.2345709801	1669
12.239289999	1636
12.2443230152	1603
12.2495250702	1598
12.2545101643	1605
12.2594301701	1599
12.2642641068	1592
12.2693610191	1592
12.2742540836	1596
12.2794680595	1587
12.284288168	1577
12.2894320488	1571
12.2945110798	1569
12.2993030548	1574
12.3042709827	1568
12.3092081547	1571
12.3143820763	1578
12.3191981316	1543
12.3243911266	1273
12.3294620514	945
12.3341851234	721
12.3389410973	716
12.3439350128	831
12.3487961292	734
12.3538060188	466
12.358839035	601
12.3635761738	1449
12.3686161041	2676
12.3737411499	2807
12.3787529469	1987
12.3835949898	1520
12.3885731697	1638
12.3937871456	1768
12.3986361027	1693
12.4037079811	1598
12.4087059498	1587
12.4139871597	1615
12.4189760685	1613
12.4237771034	1591
12.4287850857	1580
12.433891058	1578
12.4390499592	1580
12.4440100193	1576
12.4489920139	1563
12.4541800022	1556
12.4591109753	1555
12.4640719891	1548
12.4691290855	1541
12.4742000103	1534
12.4792020321	1531
12.4841189384	1519
12.489192009	1496
12.4940860271	1476
12.4991769791	1455
12.5042281151	1435
12.5093610287	1408
12.5143649578	1389
12.5192401409	1358
12.5241100788	1323
12.5293309689	1298
12.5343840122	1267
12.5393230915	1249
12.5441520214	1241
12.5493240356	1242
12.5540781021	1248
12.55904603	1268
12.5640251637	1293
12.5690801144	1317
12.5742590427	1339
12.5793220997	1381
12.5841231346	1430
12.5889480114	1480
12.5942230225	1530
12.5991091728	1582
12.6040420532	1635
12.6092691422	1678
12.6141610146	1719
12.6190700531	1745
12.6241350174	1758
12.6293001175	1773
12.6342680454	1785
12.6392149925	1788
12.6440560818	1792
12.6490659714	1804
12.6540820599	1809
12.6591579914	1812
12.6639699936	1811
12.669175148	1808
12.6741991043	1807
12.6791391373	1802
12.6841440201	1788
12.6891560555	1780
12.6940841675	1784
12.6991250515	1778
12.7041549683	1769
12.7091050148	1764
12.7142620087	1763
12.7190511227	1757
12.7241740227	1743
12.7293319702	1727
12.734318018	1722
12.7391090393	1718
12.7441539764	1719
12.7493031025	1716
12.75406003	1708
12.7593240738	1707
12.7643151283	1713
12.7690241337	1717
12.7740530968	1711
12.7792351246	1703
12.7840890884	1705
12.7893869877	1706
12.7944459915	1704
12.7992610931	1713
12.8041269779	1713
12.8093800545	1707
12.8144659996	1704
12.8192961216	1705
12.8243451118	1703
12.8293421268	1703
12.8342759609	1702
12.8393001556	1704
12.8442630768	1709
12.8494369984	1710
12.8544950485	1702
12.8593161106	1696
12.8643059731	1695
12.8692109585	1692
12.8743531704	1687
12.8793809414	1689
12.8842229843	1691
12.8893091679	1692
12.8941531181	1690
12.899187088	1690
12.9041199684	1684
12.909389019	1676
12.9143090248	1675
12.9192581177	1673
12.9242150784	1672
12.9290699959	1674
12.9341931343	1676
12.9392750263	1681
12.9441239834	1691
12.9492771626	1701
12.9540541172	1696
12.9590649605	1689
12.964151144	1688
12.9691030979	1697
12.974271059	1713
12.9793181419	1711
12.9840569496	1699
12.9892029762	1696
12.9941761494	1681
12.9991519451	1659
13.0040240288	1649
13.009223938	1643
13.0141141415	1639
13.0190441608	1636
13.0241470337	1638
13.0289759636	1641
13.0339510441	1638
13.0391299725	1628
13.0440249443	1619
13.0489311218	1614
13.0541901588	1608
13.0592069626	1608
13.0642399788	1610
13.0691161156	1620
13.0743629932	1631
13.0791020393	1521
13.0840160847	1198
13.0893809795	859
13.094230175	718
13.0989341736	824
13.1037950516	890
13.1086659431	682
13.1136209965	521
13.1184210777	933
13.1233999729	1920
13.128524065	2894
13.1336929798	2632
13.1386721134	1831
13.1434719563	1553
13.1487071514	1695
13.1535620689	1750
13.158588171	1663
13.1635069847	1607
13.1686601639	1615
13.1736061573	1628
13.1786799431	1621
13.1834540367	1602
13.1886739731	1591
13.1938910484	1595
13.1989810467	1594
13.2038309574	1576
13.2087230682	1563
13.2139060497	1560
13.2187850475	1558
13.223952055	1552
13.2289590836	1547
13.2338609695	1540
13.238847971	1526
13.2438600063	1517
13.2487461567	1507
13.2540199757	1485
13.2590489388	1464
13.2639961243	1445
13.2688441277	1420
13.2740120888	1395
13.278990984	1375
13.2838280201	1352
13.289219141	1315
13.2940671444	1296
13.299049139	1292
13.3041141033	1285
13.3093800545	1285
13.3141751289	1300
13.3192110062	1317
13.3241829872	1341
13.329223156	1372
13.3342180252	1400
13.3392679691	1434
13.3444881439	1480
13.349437952	1523
13.3542721272	1561
13.3591599464	1603
13.3641109467	1648
13.3692491055	1686
13.3743269444	1706
13.3791911602	1732
13.3841891289	1748
13.3892230988	1752
13.3941919804	1763
13.3993690014	1774
13.4041790962	1774
13.409348011	1771
13.4144749641	1776
13.4192330837	1775
13.4243659973	1775
13.4295501709	1775
13.4345090389	1768
13.4394481182	1754
13.4446079731	1750
13.4498369694	1750
13.4545049667	1746
13.4596300125	1737
13.4645960331	1731
13.4699599743	1721
13.4749691486	1708
13.479861021	1707
13.4847650528	1698
13.4900200367	1689
13.4949200153	1685
13.4997861385	1681
13.504691124	1675
13.5099990368	1674
13.5148160458	1675
13.5198321342	1671
13.5248949528	1662
13.5300900936	1663
13.5349199772	1668
13.540158987	1670
13.5450639725	1669
13.5501410961	1665
13.55519104	1660
13.5601761341	1665
13.5653681755	1672
13.5703959465	1670
13.5751800537	1672
13.5802609921	1676
13.5853030682	1674
13.59040308	1668
13.5953891277	1664
13.6004691124	1664
13.6054689884	1665
13.6104619503	1662
13.6155531406	1663
13.6207201481	1663
13.625754118	1659
13.6305611134	1655
13.6355471611	1654
13.6404521465	1652
13.645565033	1647
13.6506669521	1647
13.6556370258	1654
13.6608371735	1653
13.6658661366	1652
13.6707661152	1656
13.6755700111	1667
13.6806759834	1671
13.6858360767	1676
13.6907269955	1699
13.6957421303	1695
13.7005989552	1683
13.7056190968	1685
13.7108621597	1673
13.7157189846	1636
13.7207159996	1609
13.725892067	1612
13.7308180332	1616
13.7358119488	1604
13.7406840324	1596
13.7459390163	1609
13.7508120537	1608
13.7558801174	1588
13.7609369755	1574
13.7659239769	1572
13.7709519863	1570
13.7760779858	1569
13.7808101177	1572
13.7859170437	1578
13.7909841537	1582
13.7958209515	1452
13.8009130955	1127
13.8060190678	797
13.8109221458	642
13.8156421185	739
13.8206269741	788
13.8254380226	580
13.830245018	494
13.835036993	1044
13.8401260376	2133
13.845510006	2922
13.8505401611	2440
13.8553991318	1713
13.8603589535	1557
13.8655359745	1683
13.8705649376	1688
13.8756160736	1609
13.8804981709	1573
13.8854751587	1579
13.8904941082	1581
13.8956370354	1570
13.9005579948	1548
13.9057791233	1532
13.910877943	1538
13.9158091545	1541
13.9207980633	1528
13.9261240959	1519
13.9311959743	1514
13.9359691143	1509
13.9412550926	1499
13.9462809563	1492
13.9509420395	1486
13.9560720921	1480
13.9609880447	1465
13.9659309387	1446
13.9709630013	1423
13.9759459496	1399
13.9808571339	1387
13.9858181477	1367
13.9909751415	1333
13.9960720539	1311
14.0010249615	1289
14.0062429905	1260
14.0108680725	1241
14.0158951283	1231
14.0211920738	1221
14.0261540413	1221
14.0310549736	1230
14.0360720158	1240
14.0411450863	1263
14.0461270809	1295
14.0510339737	1334
14.0560770035	1380
14.0613460541	1418
14.0662410259	1454
14.0712201595	1494
14.0760509968	1538
14.0813381672	1586
14.0862541199	1625
14.0910840034	1650
14.0962040424	1676
14.1013121605	1695
14.1060781479	1709
14.1109521389	1715
14.1160480976	1713
14.1211810112	1713
14.1262321472	1720
14.1312069893	1726
14.1359839439	1724
14.1410391331	1729
14.1462090015	1718
14.1512770653	1706
14.1561830044	1695
14.1613371372	1691
14.1662349701	1691
14.1710779667	1690
14.1761410236	1691
14.18136096	1686
14.1864790916	1677
14.1912651062	1665
14.196242094	1649
14.2012310028	1648
14.2063541412	1650
14.211425066	1652
14.216132164	1648
14.2215101719	1634
14.2264821529	1626
14.2314341068	1634
14.2363369465	1633
14.2415230274	1620
14.2465341091	1622
14.2513599396	1627
14.2563970089	1624
14.2614340782	1625
14.2664129734	1631
14.2714209557	1635
14.2766640186	1631
14.2816720009	1636
14.2867269516	1640
14.291519165	1638
14.2965400219	1640
14.3016281128	1635
14.3066580296	1632
14.3115899563	1635
14.3167719841	1636
14.3216359615	1637
14.3266510963	1634
14.3318350315	1636
14.3366720676	1639
14.3417479992	1644
14.3466219902	1649
14.3516190052	1648
14.3565890789	1640
14.3615820408	1649
14.3663711548	1658
14.3714830875	1667
14.3766961098	1682
14.3816010952	1705
14.3864200115	1690
14.3913581371	1675
14.3967630863	1681
14.4014360905	1666
14.4066410065	1624
14.4115760326	1605
14.4166281223	1611
14.4216849804	1610
14.4268760681	1605
14.4317679405	1611
14.4369380474	1616
14.4417681694	1601
14.4466500282	1583
14.4516961575	1575
14.4567739964	1579
14.4618940353	1588
14.4668450356	1589
14.4718639851	1586
14.476940155	1596
14.4819331169	1595
14.4871180058	1374
14.492000103	1025
14.4973139763	745
14.5022089481	715
14.5071589947	844
14.5119950771	758
14.5170140266	494
14.5218009949	606
14.5269889832	1385
14.5318191051	2587
14.5368261337	2894
14.5418071747	2116
14.5470230579	1559
14.5519070625	1613
14.5569500923	1747
14.5621740818	1704
14.5672399998	1618
14.5719780922	1601
14.5770039558	1623
14.5821840763	1622
14.587043047	1605
14.5919280052	1590
14.5972349644	1586
14.6020331383	1580
14.6069350243	1572
14.6120810509	1576
14.6169810295	1575
14.6223111153	1562
14.6272759438	1552
14.6320610046	1544
14.6370151043	1533
14.6420860291	1523
14.6471781731	1515
14.651982069	1506
14.6573250294	1484
14.662430048	1463
14.6670639515	1446
14.672109127	1430
14.6774220467	1405
14.6822769642	1371
14.6874501705	1336
14.6922550201	1315
14.6971950531	1303
14.7023849487	1285
14.7073669434	1270
14.7123651505	1267
14.7173490524	1279
14.7225270271	1289
14.7273919582	1301
14.7324981689	1328
14.7376680374	1359
14.7427401543	1395
14.7476730347	1448
14.7529060841	1497
14.7577450275	1540
14.7626841068	1591
14.7676310539	1635
14.7727119923	1670
14.777807951	1703
14.7829289436	1730
14.7877719402	1746
14.7929129601	1760
14.7984130383	1772
14.803068161	1779
14.8080790043	1783
14.8130910397	1788
14.8182520866	1788
14.8232109547	1785
14.8283419609	1783
14.8331451416	1783
14.8383221626	1781
14.843350172	1777
14.8481271267	1769
14.8531651497	1760
14.8584091663	1753
14.8633580208	1752
14.8681340218	1746
14.8733401299	1737
14.8782670498	1729
14.8831751347	1725
14.8881139755	1718
14.8933441639	1713
14.8982300758	1714
14.9034190178	1711
14.9085240364	1708
14.9134049416	1707
14.918389082	1706
14.9234340191	1695
14.9283959866	1689
14.9334821701	1691
14.9388051033	1692
14.94354105	1697
14.9486589432	1699
14.9539101124	1691
14.9588811398	1698
14.9638180733	1707
14.968914032	1706
14.9741001129	1695
14.9788491726	1695
14.9837779999	1700
14.9887151718	1698
14.9939990044	1698
14.9990479946	1699
15.003868103	1700
15.0087759495	1702
15.0139861107	1703
15.0188651085	1700
15.0238740444	1702
15.0289430618	1701
15.0342111588	1690
15.0390110016	1682
15.0439331532	1687
15.0490131378	1692
15.0542039871	1688
15.0592851639	1684
15.0640730858	1688
15.0689921379	1685
15.0739710331	1677
15.0789821148	1678
15.084059	1685
15.0892450809	1695
15.0941751003	1707
15.0990109444	1713
15.1039030552	1730
15.1091361046	1740
15.1140921116	1720
15.1190869808	1717
15.1240580082	1717
15.1290299892	1693
15.1339859962	1659
15.1390900612	1643
15.1439499855	1657
15.1490249634	1662
15.15426898	1654
15.1592581272	1641
15.1640920639	1637
15.1691329479	1632
15.1742620468	1622
15.1791610718	1616
15.1841239929	1614
15.1894900799	1610
15.1943070889	1610
15.1992640495	1618
15.2042510509	1622
15.2093570232	1598
15.2142281532	1370
15.2192411423	1024
15.2241489887	734
15.229074955	706
15.2339241505	855
15.2389769554	814
15.2438230515	582
15.2487170696	708
15.2538089752	1448
15.2587230206	2540
15.263641119	2913
15.2685110569	2230
15.2737951279	1622
15.2785830498	1610
15.2836711407	1730
15.2886021137	1710
15.2935760021	1629
15.2987110615	1604
15.3036060333	1619
15.3087689877	1626
15.3138921261	1609
15.3186631203	1590
15.3236141205	1586
15.3286721706	1592
15.3337671757	1578
15.3389489651	1564
15.3438601494	1562
15.3487920761	1562
15.3536901474	1553
15.3588161469	1546
15.3636779785	1549
15.3687889576	1539
15.3739840984	1524
15.3788371086	1509
15.3837020397	1491
15.3886799812	1476
15.3937580585	1464
15.3986880779	1445
15.4037210941	1418
15.4087851048	1397
15.4136481285	1375
15.4187870026	1343
15.4236881733	1316
15.4287421703	1305
15.4337110519	1307
15.438724041	1306
15.4435961246	1310
15.4485969543	1322
15.4535520077	1338
15.4587650299	1363
15.4636220932	1390
15.468640089	1421
15.4736330509	1458
15.4786119461	1506
15.4835591316	1551
15.4885480404	1585
15.4937341213	1617
15.4987139702	1653
15.5036351681	1683
15.5086071491	1703
15.5137879848	1728
15.5186209679	1747
15.5237460136	1752
15.5287020206	1753
15.5335309505	1757
15.5386300087	1761
15.5436019897	1762
15.5487360954	1766
15.5539240837	1766
15.5589981079	1758
15.5639491081	1754
15.568914175	1751
15.5740251541	1735
15.5791211128	1725
15.5839340687	1726
15.5891449451	1725
15.5939159393	1718
15.599116087	1710
15.6040840149	1703
15.6093699932	1698
15.6141760349	1694
15.6191680431	1688
15.6241500378	1680
15.6293230057	1674
15.6341910362	1675
15.6392359734	1665
15.6442141533	1660
15.6492960453	1659
15.6545579433	1659
15.6592509747	1663
15.6641521454	1667
15.6694731712	1664
15.6745641232	1658
15.6794600487	1665
15.6844580173	1668
15.6894049644	1660
15.6945331097	1663
15.6996040344	1666
15.704818964	1664
15.7100050449	1667
15.7149729729	1675
15.7200751305	1674
15.724971056	1668
15.7299849987	1662
15.7350411415	1660
15.7398719788	1663
15.7449879646	1667
15.750193119	1663
15.7550201416	1657
15.7600460052	1660
15.7650611401	1666
15.7703070641	1661
15.7753500938	1654
15.7801780701	1659
15.7852699757	1667
15.7902450562	1666
15.7953100204	1670
15.8002490997	1683
15.8054440022	1691
15.8104610443	1707
15.8153240681	1694
15.8202950954	1684
15.8254981041	1691
15.8304769993	1677
15.8355829716	1637
15.840460062	1611
15.845402956	1617
15.8504040241	1622
15.8554890156	1618
15.8607270718	1607
15.8656480312	1609
15.8707699776	1604
15.8756940365	1597
15.8807430267	1586
15.8857741356	1576
15.8907830715	1575
15.8958339691	1586
15.9010910988	1592
15.9061131477	1597
15.9108541012	1590
15.91583395	1390
15.9209721088	1060
15.9260120392	759
15.9309761524	673
15.9357831478	782
15.9405090809	747
15.9456551075	494
15.9504101276	568
15.9553041458	1326
15.9602129459	2462
15.9654181004	2912
15.9704329967	2231
15.9752810001	1621
15.9802999496	1612
15.9855060577	1736
15.9904031754	1697
15.9953041077	1600
16.0002579689	1573
16.0053329468	1592
16.0105240345	1597
16.0154399872	1579
16.0204069614	1568
16.0255229473	1561
16.0303571224	1556
16.0353860855	1548
16.0403950214	1538
16.0454649925	1529
16.0503370762	1525
16.0555200577	1524
16.0604770184	1519
16.0653979778	1509
16.0705630779	1502
16.0755460262	1495
16.0806159973	1482
16.085766077	1461
16.0907649994	1444
16.0955290794	1432
16.1004941463	1409
16.1055419445	1388
16.1105470657	1367
16.1155920029	1341
16.1204149723	1313
16.1254711151	1286
16.1303241253	1267
16.1353690624	1256
16.140403986	1258
16.1456689835	1268
16.1506531239	1283
16.1554281712	1288
16.1604790688	1298
16.1653671265	1330
16.1705081463	1368
16.1754560471	1407
16.1803641319	1453
16.1854550838	1499
16.1905431747	1539
16.1955640316	1577
16.200783968	1617
16.2058091164	1650
16.2109789848	1677
16.2158510685	1701
16.220867157	1717
16.2260940075	1725
16.2309670448	1740
16.235959053	1746
16.2409901619	1743
16.2459151745	1747
16.2509450912	1747
16.2559740543	1744
16.2611050606	1740
16.2659480572	1738
16.2712199688	1731
16.2760851383	1719
16.2809891701	1718
16.2861330509	1715
16.2910721302	1713
16.296049118	1716
16.3011591434	1698
16.3062500954	1679
16.3110311031	1675
16.3159611225	1681
16.3212060928	1679
16.3262591362	1671
16.3312089443	1667
16.336135149	1661
16.3412389755	1653
16.3462510109	1654
16.3513860703	1655
16.3564610481	1649
16.3613331318	1648
16.3664801121	1650
16.3712861538	1649
16.3762969971	1654
16.3814051151	1659
16.386785984	1659
16.3916780949	1652
16.3968479633	1651
16.4018790722	1654
16.4067239761	1652
16.4118189812	1654
16.4166121483	1661
16.4218611717	1658
16.4269039631	1654
16.4316849709	1656
16.4367780685	1656
16.4419810772	1654
16.4467570782	1655
16.4519181252	1653
16.4567511082	1655
16.4620010853	1667
16.4668581486	1671
16.471820116	1661
16.4770181179	1659
16.4819710255	1667
16.4871749878	1673
16.4921200275	1680
16.496940136	1695
16.5020389557	1704
16.507101059	1717
16.512086153	1707
16.5173649788	1701
16.5223641396	1699
16.5271821022	1684
16.5321359634	1648
16.5372130871	1623
16.5424110889	1624
16.5473570824	1626
16.5522611141	1622
16.5573749542	1622
16.5622141361	1622
16.5671470165	1615
16.5720961094	1608
16.5774681568	1599
16.5823760033	1594
16.5872740746	1592
16.5920541286	1592
16.596971035	1597
16.6020190716	1604
16.6070120335	1618
16.6119360924	1473
16.6170351505	1150
16.6218659878	845
16.6268689632	740
16.6316430569	835
16.6367609501	800
16.641700983	514
16.6466741562	462
16.6514630318	1077
16.6563761234	2240
16.661575079	2966
16.6666669846	2375
16.6717669964	1637
16.6767110825	1559
16.6816761494	1723
16.6865470409	1736
16.6915299892	1639
16.6968920231	1600
16.7018899918	1621
16.7068791389	1628
16.7116761208	1611
16.7167000771	1597
16.7218811512	1589
16.726883173	1592
16.7317910194	1587
16.7367770672	1578
16.7418720722	1573
16.746792078	1565
16.7516040802	1557
16.7566370964	1547
16.7618181705	1537
16.7666699886	1529
16.7716190815	1527
16.7766880989	1516
16.781774044	1499
16.7868421078	1478
16.7917821407	1459
16.7967209816	1440
16.801954031	1417
16.8067810535	1392
16.8117380142	1363
16.8166749477	1338
16.8218209743	1316
16.8267970085	1298
16.8316760063	1286
16.836673975	1281
16.8416521549	1281
16.8468699455	1295
16.8518900871	1315
16.8569700718	1333
16.8620390892	1363
16.8669111729	1401
16.8719639778	1440
16.876896143	1484
16.881911993	1532
16.8870940208	1571
16.8919770718	1612
16.897231102	1656
16.9021420479	1694
16.9071409702	1717
16.9122469425	1739
16.917219162	1758
16.922219038	1768
16.9272921085	1776
16.9320659637	1789
16.9371211529	1786
16.9423551559	1781
16.9471449852	1786
16.9521369934	1794
16.957349062	1792
16.9622671604	1780
16.9671461582	1771
16.9722480774	1767
16.9773831367	1768
16.9823961258	1763
16.9873490334	1751
16.9923570156	1738
16.997344017	1736
17.0025420189	1732
17.0074510574	1732
17.0126860142	1724
17.0176930428	1712
17.0226621628	1709
17.0274851322	1711
17.0325269699	1707
17.0375490189	1700
17.0425691605	1701
17.047492981	1706
17.0526471138	1700
17.0575170517	1692
17.0626471043	1694
17.0675120354	1700
17.0727231503	1692
17.077586174	1692
17.0827510357	1697
17.0876569748	1701
17.0925829411	1699
17.0977740288	1692
17.1028430462	1693
17.1077771187	1699
17.1129200459	1699
17.1177301407	1692
17.1227650642	1689
17.1279680729	1695
17.13291502	1693
17.1380341053	1689
17.1430621147	1691
17.1479070187	1692
17.1529371738	1685
17.1582651138	1685
17.1630439758	1688
17.1679279804	1687
17.1732671261	1681
17.1782259941	1682
17.1830730438	1686
17.1879680157	1685
17.1929500103	1683
17.1979980469	1685
17.2030701637	1685
17.2080390453	1687
17.2129321098	1696
17.2181391716	1704
17.2232680321	1717
17.2281870842	1733
17.2333910465	1721
17.2384400368	1715
17.2432129383	1715
17.2481300831	1696
17.253316164	1659
17.2582030296	1642
17.2631731033	1648
17.2681610584	1647
17.2731201649	1635
17.2782249451	1633
17.2832829952	1634
17.2882790565	1627
17.2935171127	1621
17.2985270023	1620
17.3035480976	1618
17.3082909584	1610
17.3133051395	1611
17.318488121	1613
17.3236191273	1620
17.328564167	1633
17.3335471153	1482
17.3384771347	1151
17.34354496	821
17.3485040665	712
17.3535101414	834
17.3584840298	846
17.3633370399	602
17.3681190014	597
17.3730101585	1216
17.3781940937	2295
17.3831679821	2953
17.388092041	2413
17.3933660984	1694
17.3980760574	1569
17.4031481743	1700
17.4081311226	1715
17.4131031036	1639
17.4183599949	1603
17.4233429432	1620
17.4282319546	1630
17.4332261086	1616
17.4385530949	1593
17.4434201717	1579
17.4483439922	1584
17.4534270763	1582
17.4584360123	1572
17.4633820057	1568
17.4684221745	1564
17.4734511375	1557
17.4785270691	1548
17.4832439423	1539
17.4884090424	1530
17.4933559895	1519
17.4983429909	1508
17.5033991337	1492
17.5083501339	1472
17.5134761333	1457
17.5184969902	1444
17.5234260559	1417
17.5282831192	1388
17.533411026	1366
17.5384111404	1342
17.5432450771	1326
17.5483541489	1315
17.5532591343	1309
17.5582270622	1306
17.5634391308	1310
17.5682721138	1323
17.5735640526	1337
17.5786001682	1357
17.5834951401	1394
17.588406086	1425
17.5936319828	1449
17.5984930992	1493
17.6035430431	1543
17.6085629463	1582
17.6137621403	1613
17.6185250282	1645
17.6236841679	1678
17.6286940575	1705
17.6338460445	1720
17.6386170387	1731
17.6436140537	1743
17.6487481594	1750
17.6536870003	1754
17.6587450504	1758
17.6637101173	1755
17.6686620712	1750
17.6738359928	1752
17.678645134	1757
17.683743	1754
17.688835144	1745
17.6940200329	1733
17.6991870403	1722
17.7041640282	1718
17.7091090679	1716
17.7140040398	1704
17.7189879417	1699
17.72402215	1695
17.7290611267	1692
17.734333992	1685
17.7390880585	1679
17.7439911366	1675
17.7491681576	1669
17.7540850639	1669
17.7591290474	1671
17.764124155	1671
17.7693481445	1665
17.7741260529	1660
17.7793619633	1664
17.7841391563	1665
17.7893111706	1662
17.7943849564	1665
17.7994229794	1669
17.8041851521	1669
17.8094789982	1661
17.8143041134	1663
17.8192131519	1669
17.8241701126	1668
17.8293530941	1670
17.8340890408	1671
17.8391060829	1667
17.8445060253	1666
17.8493390083	1669
17.8545041084	1675
17.859333992	1672
17.8642661572	1667
17.8692510128	1661
17.8744101524	1658
17.8794100285	1657
17.8843770027	1664
17.8896529675	1665
17.8947970867	1665
17.8994951248	1661
17.9046161175	1658
17.9095799923	1661
17.9146399498	1669
17.9197061062	1673
17.9246640205	1681
17.9297599792	1695
17.9347369671	1713
17.9397120476	1707
17.9446630478	1691
17.9498920441	1698
17.9548890591	1702
17.9596259594	1669
17.9646420479	1628
17.9698050022	1617
17.9747781754	1625
17.9795629978	1627
17.9847021103	1615
17.9895241261	1612
17.9946060181	1613
17.9996421337	1608
18.0047869682	1597
18.0097999573	1590
18.0148701668	1588
18.0198011398	1584
18.0246429443	1587
18.0297169685	1599
18.0348200798	1609
18.0398280621	1557
18.0447821617	1299
18.0500791073	966
18.0547349453	701
18.0595719814	684
18.0643780231	824
18.0693950653	755
18.0743441582	534
18.0791120529	770
18.0839829445	1645
18.0888490677	2707
18.0941491127	2816
18.0992040634	2066
18.1041331291	1600
18.109457016	1655
18.1142380238	1732
18.1191370487	1671
18.1241960526	1592
18.1292681694	1588
18.1344909668	1610
18.139384985	1594
18.1448180676	1572
18.1493029594	1568
18.154417038	1564
18.1592581272	1558
18.1642279625	1554
18.1695570946	1549
18.1745531559	1544
18.1793811321	1538
18.1844940186	1529
18.1894841194	1517
18.1942260265	1512
18.1991620064	1504
18.2042491436	1496
18.2093009949	1482
18.2142219543	1464
18.2193031311	1446
18.2243170738	1430
18.2295241356	1416
18.2342629433	1402
18.2393641472	1374
18.2441689968	1340
18.2494080067	1319
18.2545580864	1305
18.2595779896	1290
18.2647180557	1288
18.2696011066	1300
18.2744619846	1301
18.2792990208	1298
18.2843511105	1315
18.2894539833	1339
18.2944691181	1367
18.2994849682	1401
18.3044099808	1435
18.3095400333	1477
18.3143351078	1525
18.3194031715	1564
18.3243291378	1588
18.3295819759	1620
18.3344910145	1650
18.339302063	1676
18.3442971706	1695
18.3494961262	1713
18.3544900417	1719
18.3592841625	1722
18.3642420769	1731
18.3693339825	1736
18.374546051	1736
18.3792300224	1736
18.384196043	1725
18.3893091679	1718
18.3941819668	1712
18.39914608	1708
18.4041171074	1707
18.4090740681	1701
18.4140100479	1695
18.4191501141	1693
18.4239959717	1688
18.429074049	1675
18.434169054	1671
18.4392249584	1670
18.4440510273	1667
18.4491751194	1659
18.4542331696	1647
18.4591491222	1638
18.4639511108	1631
18.4691770077	1634
18.4741699696	1639
18.479113102	1636
18.4840590954	1630
18.4890561104	1626
18.494040966	1631
18.4989960194	1631
18.5039830208	1625
18.5089919567	1627
18.5141739845	1634
18.5190479755	1639
18.5239231586	1637
18.5289850235	1634
18.5341770649	1628
18.5392391682	1623
18.544064045	1627
18.5491709709	1629
18.5539901257	1635
18.5591089725	1630
18.5639109612	1628
18.5690879822	1624
18.5741701126	1628
18.5791130066	1638
18.5841770172	1643
18.5891859531	1643
18.5941860676	1647
18.599394083	1656
18.6041820049	1656
18.6093730927	1657
18.6142449379	1682
18.6192550659	1707
18.6241919994	1690
18.629322052	1674
18.634526968	1675
18.6393880844	1644
18.6441969872	1608
18.6493041515	1602
18.6544280052	1608
18.6594891548	1609
18.6643471718	1606
18.6695380211	1601
18.6744930744	1593
18.6793661118	1585
18.6846311092	1575
18.6896090508	1568
18.6944961548	1573
18.6994810104	1574
18.7045760155	1567
18.7096400261	1566
18.714548111	1586
18.7196400166	1569
18.7247171402	1335
18.7296140194	1025
18.7347669601	773
18.7394781113	752
18.744353056	804
18.7495031357	619
18.7543070316	341
18.759032011	566
18.7639541626	1487
18.7689540386	2685
18.7739739418	2828
18.7789850235	2004
18.7839310169	1521
18.7891311646	1618
18.7942130566	1731
18.7990820408	1673
18.8040909767	1586
18.8093130589	1579
18.8142361641	1603
18.819411993	1600
18.8243041039	1580
18.829264164	1571
18.8342649937	1572
18.8394491673	1571
18.8445949554	1565
18.8495740891	1552
18.8545639515	1540
18.8594150543	1533
18.864536047	1534
18.8697061539	1531
18.8747911453	1518
18.8796181679	1506
18.884814024	1499
18.8897950649	1489
18.8947529793	1472
18.8995909691	1458
18.9048149586	1440
18.9098780155	1413
18.9149770737	1383
18.9198410511	1360
18.9247100353	1330
18.9296841621	1301
18.9347341061	1284
18.9396791458	1278
18.9446380138	1277
18.9498579502	1276
18.9547331333	1276
18.9597001076	1277
18.9647140503	1288
18.9698309898	1323
18.9749569893	1365
18.9797401428	1399
18.9848411083	1430
18.9898011684	1471
18.9948561192	1525
18.9998731613	1575
19.0048880577	1625
19.0100710392	1660
19.0150849819	1684
19.0197911263	1699
19.0248780251	1712
19.0298330784	1736
19.0350141525	1754
19.0400280952	1757
19.0452170372	1764
19.0500969887	1773
19.055024147	1772
19.0602481365	1768
19.0652830601	1766
19.070346117	1766
19.0752270222	1763
19.0802710056	1762
19.0852251053	1757
19.0903511047	1740
19.0954010487	1732
19.1005461216	1731
19.1055970192	1732
19.1103711128	1726
19.1152131557	1718
19.1202509403	1711
19.1253139973	1701
19.1302981377	1702
19.1353080273	1702
19.1402831078	1700
19.1453111172	1696
19.1503200531	1693
19.1553139687	1690
19.1603469849	1686
19.1655130386	1687
19.1705329418	1688
19.1754200459	1686
19.1803491116	1686
19.1855740547	1690
19.1905691624	1697
19.1953401566	1694
19.2003240585	1695
19.205384016	1691
19.2103669643	1697
19.2155089378	1704
19.2203299999	1694
19.2253849506	1681
19.2305941582	1687
19.2353560925	1695
19.240391016	1694
19.2454581261	1692
19.2505681515	1692
19.2555019855	1687
19.2607591152	1692
19.2656030655	1703
19.2706270218	1690
19.2757711411	1698
19.2806220055	1710
19.2857980728	1726
19.2907891273	1749
19.295689106	1738
19.3006460667	1715
19.3057119846	1724
19.3107681274	1718
19.3156571388	1680
19.3207449913	1641
19.3258841038	1635
19.3307011127	1651
19.3358299732	1655
19.3407299519	1642
19.3457341194	1635
19.3509070873	1631
19.3557679653	1616
19.3608870506	1609
19.3658630848	1604
19.3708901405	1599
19.375731945	1600
19.3807971478	1606
19.3859770298	1623
19.3909971714	1633
19.3958981037	1517
19.4007689953	1213
19.4059340954	893
19.410875082	754
19.4157500267	844
19.4206769466	862
19.42552495	615
19.4304301739	528
19.4353320599	1053
19.4403431416	2107
19.4455449581	2948
19.4505190849	2541
19.4554100037	1751
19.4603991508	1538
19.4655070305	1679
19.4703500271	1734
19.4752781391	1663
19.4805531502	1609
19.4853680134	1614
19.4902961254	1621
19.4953291416	1615
19.5003409386	1602
19.5055561066	1582
19.5106360912	1572
19.5153939724	1576
19.5204920769	1573
19.5256609917	1563
19.5305550098	1555
19.5356860161	1550
19.5405509472	1551
19.5456881523	1542
19.5505759716	1531
19.5556941032	1520
19.5606000423	1505
19.5658431053	1495
19.5707490444	1481
19.5756690502	1466
19.5806319714	1452
19.5857491493	1426
19.5908479691	1395
19.5957090855	1372
19.600687027	1356
19.6058430672	1337
19.6107120514	1320
19.6158781052	1313
19.6209411621	1316
19.6259551048	1317
19.6308701038	1326
19.635846138	1347
19.6408929825	1372
19.6458480358	1398
19.6509821415	1421
19.6559381485	1457
19.6609950066	1502
19.6662130356	1548
19.6709861755	1583
19.6760420799	1609
19.6813011169	1645
19.6862909794	1683
19.6911940575	1711
19.6962580681	1732
19.701403141	1745
19.7062759399	1749
19.7113611698	1757
19.7163751125	1766
19.7216551304	1770
19.7266311646	1765
19.7315330505	1756
19.7365000248	1753
19.7415730953	1754
19.7464671135	1753
19.7514569759	1750
19.7566580772	1737
19.7616109848	1730
19.7665071487	1726
19.7714431286	1721
19.776679039	1711
19.7818260193	1706
19.7867641449	1702
19.7916970253	1695
19.7965831757	1694
19.8015151024	1693
19.8066570759	1684
19.8117141724	1678
19.816920042	1671
19.8217830658	1665
19.8265600204	1667
19.8315980434	1671
19.8367550373	1675
19.8416349888	1664
19.8466300964	1663
19.8516840935	1664
19.8568439484	1666
19.8616440296	1669
19.8668429852	1671
19.8718481064	1669
19.8767590523	1667
19.8818819523	1669
19.8868739605	1670
19.8917300701	1668
19.8967270851	1677
19.9017920494	1682
19.906815052	1683
19.9118161201	1684
19.9167170525	1689
19.9217331409	1695
19.9268190861	1697
19.931866169	1713
19.9366431236	1731
19.941808939	1740
19.9468300343	1719
19.9516379833	1716
19.9567680359	1719
19.9618639946	1699
19.9670841694	1658
19.9719460011	1644
19.9771039486	1645
19.9819419384	1645
19.9870531559	1638
19.9920110703	1640
19.9971921444	1638
20.0021481514	1626
20.0071480274	1617
20.0121121407	1611
20.0171000957	1609
20.0222420692	1606
20.0272021294	1604
20.0319740772	1607
20.0372509956	1625
20.0422639847	1625
20.0472121239	1421
20.0521271229	1101
20.0572850704	800
20.0620141029	733
20.0670111179	850
20.0719561577	788
20.0768830776	557
20.0817739964	721
20.0868520737	1506
20.0917320251	2621
20.0967450142	2911
20.1019289494	2188
20.1068871021	1612
20.1118509769	1616
20.1168050766	1724
20.1219129562	1699
20.1266720295	1625
20.1317510605	1604
20.1367900372	1616
20.1417140961	1612
20.1468350887	1594
20.1518211365	1586
20.1567430496	1581
20.1620500088	1571
20.167083025	1569
20.171913147	1569
20.1769680977	1565
20.1820859909	1558
20.1870360374	1553
20.1918849945	1548
20.1971039772	1543
20.2019641399	1532
20.207157135	1519
20.21205616	1508
20.2170350552	1494
20.2220740318	1473
20.2270669937	1455
20.2320730686	1442
20.2369439602	1413
20.2421419621	1380
20.2470481396	1361
20.2519791126	1351
20.2571680546	1337
20.2620360851	1323
20.2670171261	1318
20.272108078	1322
20.277162075	1332
20.282143116	1347
20.2871530056	1364
20.292014122	1388
20.2970120907	1413
20.3021621704	1445
20.3072090149	1486
20.3120419979	1522
20.3173079491	1550
20.3222980499	1576
20.3271570206	1614
20.3320980072	1650
20.3372900486	1675
20.3423380852	1686
20.347162962	1709
20.3521499634	1732
20.3573729992	1742
20.3622360229	1745
20.3673331738	1748
20.3722541332	1749
20.3772940636	1744
20.3824551105	1741
20.3873460293	1742
20.3923120499	1736
20.3975419998	1729
20.4025681019	1725
20.4075419903	1718
20.4126570225	1711
20.4177589417	1701
20.4226691723	1696
20.4276659489	1691
20.4326679707	1682
20.4377989769	1670
20.4428830147	1669
20.4478859901	1668
20.4527089596	1659
20.4576449394	1649
20.4626779556	1653
20.4678189754	1659
20.4728620052	1648
20.4779081345	1638
20.4827420712	1639
20.4877800941	1641
20.4928560257	1637
20.4979300499	1640
20.5030510426	1645
20.5079500675	1642
20.5129699707	1631
20.5178310871	1625
20.522988081	1631
20.5279090405	1646
20.5330300331	1652
20.5378880501	1644
20.5431351662	1643
20.5479149818	1646
20.5529830456	1641
20.5581481457	1644
20.5630581379	1644
20.5680849552	1643
20.5732309818	1654
20.5779650211	1659
20.5831921101	1668
20.5882310867	1676
20.593116045	1682
20.5983059406	1711
20.6032831669	1706
20.6081221104	1687
20.6130011082	1691
20.618060112	1682
20.6230080128	1642
20.6278729439	1610
20.6329901218	1613
20.6380381584	1623
20.6429359913	1617
20.6479771137	1608
20.6532621384	1607
20.658082962	1601
20.6631309986	1593
20.6680960655	1590
20.6730339527	1579
20.6781070232	1572
20.6830229759	1573
20.6880660057	1573
20.6931860447	1588
20.6983029842	1615
20.7031719685	1538
20.7083041668	1253
20.7133700848	961
20.7182600498	778
20.7230610847	792
20.7279160023	742
20.7329249382	450
20.7379491329	309
20.7428181171	866
20.7477300167	2020
20.7526531219	2949
20.7580001354	2502
20.7629370689	1701
20.7678921223	1528
20.7730891705	1687
20.7778041363	1720
20.78292799	1632
20.7880001068	1573
20.7929470539	1579
20.7978889942	1600
20.8029870987	1598
20.8078939915	1579
20.8130259514	1567
20.818171978	1569
20.8230040073	1557
20.8279900551	1545
20.833163023	1546
20.8381249905	1543
20.8430960178	1540
20.8480770588	1534
20.8533730507	1519
20.858150959	1502
20.8630421162	1491
20.8682050705	1482
20.8733921051	1465
20.8782229424	1451
20.8832769394	1435
20.8882470131	1409
20.8930931091	1386
20.8983099461	1359
20.9033100605	1335
20.9081611633	1308
20.9134020805	1295
20.9182760715	1277
20.9232709408	1259
20.9282121658	1256
20.9333269596	1267
20.9382929802	1273
20.9433259964	1285
20.9481639862	1306
20.9531919956	1323
20.958258152	1347
20.9634180069	1376
20.9682719707	1417
20.9734389782	1462
20.9783689976	1503
20.9831950665	1544
20.9884560108	1581
20.9933011532	1620
20.9984271526	1654
21.0035181046	1665
21.0083081722	1673
21.0131900311	1693
21.0184321404	1709
21.0232641697	1718
21.0282239914	1726
21.0335080624	1729
21.0385401249	1726
21.0433850288	1723
21.0482549667	1723
21.0534350872	1714
21.0582289696	1701
21.0633420944	1699
21.06833601	1700
21.073390007	1694
21.0782940388	1685
21.0833661556	1682
21.0884790421	1681
21.0933361053	1682
21.0986061096	1674
21.1033501625	1662
21.1082770824	1652
21.1136519909	1655
21.1186230183	1663
21.1235079765	1661
21.1283540726	1657
21.1335000992	1653
21.13834095	1651
21.1435191631	1650
21.1487531662	1655
21.15386796	1653
21.1587121487	1647
21.163629055	1654
21.1686911583	1663
21.1738250256	1663
21.1786520481	1665
21.1836941242	1668
21.1887490749	1667
21.1937401295	1670
21.1985399723	1678
21.2035889626	1676
21.2086131573	1672
21.2135930061	1680
21.2185871601	1685
21.2234489918	1684
21.2285561562	1691
21.2334461212	1699
21.2386240959	1701
21.243363142	1703
21.2484140396	1721
21.2537660599	1734
21.2586231232	1752
21.2635509968	1758
21.2685649395	1738
21.273512125	1732
21.2785739899	1727
21.2835841179	1691
21.2885770798	1654
21.2935020924	1656
21.2986719608	1671
21.3037099838	1665
21.3088130951	1649
21.3138639927	1649
21.3187501431	1652
21.3235881329	1641
21.3286840916	1631
21.3339231014	1631
21.3387219906	1628
21.343626976	1627
21.348703146	1629
21.3536479473	1634
21.3586120605	1656
21.3635489941	1617
21.3685481548	1342
21.3738520145	1012
21.3789000511	826
21.3836150169	896
21.3883719444	989
21.393239975	805
21.3983099461	626
21.4032001495	933
21.4079911709	1779
21.4129159451	2835
21.4179160595	2758
21.4231140614	1916
21.4279770851	1523
21.4331769943	1640
21.4381930828	1749
21.443128109	1702
21.4480500221	1640
21.4530119896	1637
21.4580669403	1648
21.4630050659	1645
21.4680690765	1634
21.4730639458	1617
21.4780731201	1608
21.4828670025	1610
21.4879381657	1612
21.4929730892	1606
21.4981780052	1601
21.5031790733	1589
21.5080370903	1583
21.5128810406	1580
21.5180511475	1571
21.5230650902	1557
21.5281620026	1540
21.533244133	1529
21.5382311344	1520
21.543076992	1501
21.5480599403	1480
21.5532100201	1455
21.5580580235	1424
21.5630791187	1406
21.568185091	1387
21.5732021332	1357
21.5780689716	1340
21.5831389427	1334
21.5881149769	1331
21.5933530331	1326
21.5983941555	1342
21.6031739712	1363
21.6081960201	1383
21.6132481098	1400
21.6182470322	1426
21.6231219769	1456
21.628111124	1495
21.6331059933	1540
21.6381039619	1575
21.6430110931	1609
21.6479730606	1647
21.6532621384	1678
21.658246994	1713
21.6631891727	1743
21.6681311131	1760
21.6733760834	1766
21.6783461571	1774
21.6835310459	1782
21.6882719994	1786
21.6934380531	1794
21.69820714	1799
21.7033441067	1800
21.708163023	1791
21.7132911682	1780
21.7184181213	1774
21.7231781483	1768
21.7281820774	1769
21.7334010601	1772
21.7384309769	1762
21.7432410717	1752
21.7481930256	1752
21.7533450127	1747
21.7580759525	1734
21.7630240917	1719
21.7682499886	1720
21.7733280659	1721
21.7781381607	1720
21.7831070423	1717
21.7879769802	1706
21.7930891514	1703
21.7981510162	1708
21.8030481339	1708
21.8081250191	1705
21.8133339882	1706
21.8181540966	1705
21.8232719898	1708
21.8282220364	1704
21.8334679604	1707
21.8384101391	1711
21.8433680534	1708
21.8482241631	1709
21.8532881737	1712
21.8583400249	1710
21.8633811474	1709
21.8681900501	1706
21.8732280731	1705
21.8784930706	1709
21.8833310604	1713
21.888338089	1716
21.8932919502	1719
21.8983061314	1713
21.9033000469	1706
21.9082551003	1710
21.913257122	1725
21.9181771278	1733
21.9233131409	1736
21.9281711578	1750
21.9333970547	1770
21.9383840561	1753
21.9431869984	1738
21.9480669498	1739
21.9531950951	1722
21.9581720829	1681
21.9631531239	1666
21.9681451321	1667
21.9731371403	1672
21.9781770706	1669
21.9833631516	1669
21.9883780479	1663
21.9933099747	1650
21.9984459877	1642
22.0033390522	1630
22.0084969997	1628
22.013299942	1633
22.0185301304	1633
22.0235290527	1630
22.0282759666	1642
22.0335030556	1651
22.0384161472	1488
22.0433700085	1165
22.0484211445	855
22.0534591675	767
22.0582821369	914
22.0631151199	939
22.0678350925	725
22.0727751255	771
22.0776591301	1394
22.0828261375	2411
22.0877361298	2964
22.0928390026	2357
22.0978960991	1683
22.1027591228	1567
22.1078190804	1687
22.1128151417	1707
22.1178591251	1638
22.1226990223	1601
22.1278250217	1610
22.1328279972	1621
22.1379849911	1607
22.1428580284	1587
22.1478710175	1579
22.1529221535	1584
22.1580369473	1577
22.1628911495	1565
22.1679980755	1563
22.1729860306	1562
22.1781451702	1555
22.1831290722	1546
22.1880860329	1536
22.1928360462	1527
22.1978030205	1519
22.2030000687	1503
22.2078721523	1487
22.2128920555	1475
22.2179090977	1458
22.2227311134	1441
22.2276790142	1421
22.2327671051	1402
22.2377951145	1380
22.2425801754	1358
22.2475731373	1340
22.2528209686	1324
22.257627964	1317
22.2625770569	1320
22.2675590515	1334
22.2726261616	1354
22.2778160572	1368
22.2827999592	1391
22.2876501083	1413
22.2926080227	1438
22.2976641655	1468
22.3027501106	1509
22.3076989651	1541
22.3127710819	1568
22.3176620007	1604
22.3226411343	1636
22.3274619579	1662
22.3327081203	1686
22.3378181458	1697
22.3426470757	1709
22.3476030827	1723
22.35257411	1730
22.3576519489	1734
22.362612009	1740
22.3676149845	1744
22.3725750446	1737
22.3776199818	1730
22.3826489449	1732
22.3877630234	1722
22.3927531242	1710
22.3979439735	1708
22.4029901028	1704
22.4077551365	1692
22.4126701355	1685
22.4178800583	1684
22.422852993	1675
22.4277911186	1666
22.4329810143	1661
22.4381289482	1651
22.4429950714	1643
22.4479620457	1639
22.4531700611	1643
22.4581780434	1638
22.4632029533	1635
22.4680831432	1642
22.4729959965	1642
22.4780721664	1634
22.4831690788	1634
22.4879860878	1636
22.4929699898	1636
22.4982171059	1635
22.5030591488	1636
22.5080239773	1640
22.5130550861	1640
22.5180289745	1638
22.5231330395	1634
22.5280351639	1648
22.5331289768	1654
22.5381190777	1643
22.5431261063	1640
22.5480620861	1648
22.5533070564	1659
22.5583879948	1667
22.5632281303	1671
22.568062067	1672
22.5731070042	1670
22.5780899525	1681
22.5831930637	1696
22.5881659985	1703
22.5932819843	1690
22.5981581211	1682
22.6030471325	1682
22.6080830097	1656
22.6132440567	1615
22.6182899475	1601
22.6231820583	1606
22.6281991005	1615
22.6331300735	1610
22.6382761002	1607
22.6430809498	1609
22.6480970383	1602
22.6532490253	1592
22.658187151	1577
22.6629741192	1573
22.6680250168	1577
22.67298913	1581
22.6781611443	1579
22.6832060814	1590
22.6880660057	1596
22.6931021214	1441
22.6982121468	1140
22.7033720016	843
22.7081010342	687
22.7131021023	775
22.7179429531	820
22.7227051258	654
22.727560997	727
22.7326569557	1414
22.7376811504	2453
22.7425191402	2911
22.7476439476	2301
22.7526350021	1676
22.757584095	1604
22.7625451088	1701
22.767521143	1675
22.772603035	1592
22.7777440548	1574
22.7826480865	1586
22.7876811028	1588
22.792691946	1572
22.7979950905	1562
22.8029630184	1551
22.8077869415	1550
22.8128550053	1545
22.8178520203	1538
22.8230681419	1530
22.82791996	1522
22.8329069614	1516
22.8381421566	1509
22.8431141376	1504
22.8478140831	1500
22.8527989388	1491
22.8578989506	1472
22.8629350662	1445
22.8678491116	1429
22.8727490902	1434
22.8778221607	1421
22.8828730583	1388
22.8879179955	1358
22.8928749561	1340
22.8982551098	1333
22.9032759666	1317
22.9081740379	1296
22.9131929874	1285
22.9182419777	1292
22.9232029915	1306
22.9281101227	1331
22.9333660603	1343
22.9383859634	1353
22.943062067	1378
22.948289156	1415
22.9532630444	1440
22.9581840038	1464
22.963176012	1505
22.9680230618	1548
22.9730081558	1568
22.9779860973	1589
22.9831521511	1614
22.9882750511	1637
22.9931280613	1649
22.9983510971	1658
23.0033130646	1670
23.0082099438	1675
23.0133481026	1688
23.0183529854	1697
23.0233299732	1686
23.0283041	1676
23.0335841179	1680
23.0383460522	1686
23.0433461666	1675
23.0483269691	1653
23.0535080433	1659
23.058588028	1665
23.0635931492	1654
23.068557024	1641
23.0737390518	1636
23.078772068	1632
23.0837700367	1632
23.0886390209	1616
23.0938920975	1608
23.0987651348	1603
23.1036570072	1605
23.1086649895	1585
23.1138851643	1583
23.1187870502	1598
23.1237280369	1606
23.1286971569	1595
23.1335830688	1588
23.13875103	1591
23.1437051296	1593
23.1487989426	1592
23.153824091	1594
23.1588900089	1597
23.1638059616	1596
23.1689291	1593
23.1739621162	1591
23.1788439751	1596
23.1838040352	1602
23.1889679432	1607
23.1939220428	1601
23.1989080906	1609
23.2040390968	1634
23.2089309692	1640
23.2141470909	1632
23.2189731598	1642
23.223968029	1669
23.2291600704	1687
23.2343740463	1671
23.2391419411	1661
23.2442960739	1655
23.2493300438	1621
23.2541871071	1580
23.259098053	1574
23.264261961	1583
23.2693991661	1587
23.2743880749	1572
23.2794101238	1562
23.2841711044	1569
23.2892770767	1562
23.2945239544	1553
23.2994389534	1541
23.3043110371	1537
23.3095541	1538
23.3145589828	1547
23.3193349838	1559
23.3245129585	1566
23.3294701576	1537
23.3344600201	1318
23.3393161297	1031
23.3443040848	818
23.3490419388	834
23.3541100025	942
23.3588130474	814
23.3637311459	563
23.3687951565	708
23.3737151623	1492
23.3785409927	2644
23.3834941387	2816
23.3887441158	2021
23.3937301636	1502
23.3987290859	1568
23.4035661221	1693
23.4085681438	1652
23.4134919643	1575
23.4187159538	1568
23.423527956	1581
23.4287519455	1575
23.4337291718	1578
23.4385650158	1570
23.4436869621	1564
23.4487431049	1557
23.4536540508	1552
23.4585530758	1549
23.4635691643	1548
23.4687860012	1544
23.4736571312	1534
23.4788210392	1528
23.4836821556	1531
23.4886791706	1525
23.4937870502	1507
23.4988939762	1494
23.5036389828	1486
23.5086591244	1475
23.5142159462	1450
23.518695116	1422
23.5235440731	1411
23.5287179947	1390
23.533700943	1368
23.5386340618	1338
23.5436861515	1321
23.5487730503	1320
23.5540771484	1316
23.5590341091	1320
23.5637800694	1336
23.5688071251	1358
23.5738961697	1368
23.5791380405	1382
23.5839569569	1408
23.58893013	1446
23.594025135	1487
23.5989310741	1527
23.604088068	1562
23.6088910103	1596
23.6141149998	1632
23.6191101074	1664
23.6239891052	1688
23.628868103	1710
23.6340820789	1732
23.6390190125	1753
23.6439909935	1769
23.6489851475	1775
23.6539430618	1777
23.6587259769	1776
23.6638221741	1779
23.6689469814	1786
23.6739301682	1780
23.6788330078	1776
23.683891058	1777
23.6889030933	1776
23.6937630177	1759
23.6989250183	1750
23.703963995	1745
23.70885396	1733
23.7140610218	1724
23.7188310623	1715
23.7237010002	1705
23.7287249565	1702
23.7339799404	1704
23.7388260365	1700
23.743751049	1694
23.7487311363	1689
23.7537779808	1684
23.7588069439	1684
23.7638840675	1688
23.7689621449	1690
23.7741010189	1687
23.7789940834	1686
23.7841081619	1690
23.7892119884	1687
23.7942860126	1690
23.7992551327	1698
23.8041570187	1701
23.8094069958	1697
23.8142080307	1701
23.8192429543	1707
23.8241591454	1708
23.8293919563	1709
23.8344199657	1708
23.8393540382	1717
23.8442950249	1734
23.8492281437	1752
23.8544311523	1771
23.8593101501	1776
23.8643200397	1761
23.8695440292	1754
23.8743340969	1741
23.8792200089	1714
23.8841969967	1681
23.8892600536	1667
23.8944561481	1665
23.8993599415	1667
23.9041941166	1663
23.909209013	1662
23.9143781662	1656
23.9193639755	1644
23.9242789745	1638
23.9294509888	1629
23.9344439507	1620
23.939193964	1613
23.9441659451	1619
23.9494230747	1627
23.9544260502	1633
23.9593300819	1602
23.9642369747	1352
23.9692900181	1039
23.9743549824	865
23.9791390896	960
23.9840350151	1114
23.9893100262	964
23.9941959381	750
23.9988629818	937
24.0037600994	1650
24.0087080002	2702
24.0139579773	2764
24.0189599991	1944
24.0237390995	1472
24.0287239552	1563
24.0338389874	1709
24.0389621258	1689
24.0438640118	1619
24.0489110947	1615
24.0542981625	1640
24.0590059757	1633
24.0638101101	1617
24.0689630508	1605
24.0738589764	1595
24.0791580677	1595
24.0840139389	1601
24.0888931751	1603
24.0939371586	1585
24.0990059376	1575
24.1040861607	1568
24.1090481281	1561
24.11424613	1556
24.1192350388	1549
24.1240739822	1536
24.128993988	1526
24.1338610649	1514
24.1389250755	1493
24.1440320015	1473
24.1492581367	1456
24.1540291309	1435
24.1590590477	1407
24.1640601158	1380
24.1692841053	1355
24.1741299629	1336
24.1792330742	1327
24.1841859818	1332
24.1891341209	1337
24.1941800117	1338
24.1994261742	1350
24.2044820786	1365
24.2094061375	1391
24.2144310474	1421
24.219326973	1443
24.224145174	1469
24.229352951	1514
24.2345600128	1558
24.2395160198	1582
24.2444870472	1617
24.2495119572	1670
24.2545151711	1708
24.2594921589	1717
24.2644701004	1731
24.2696771622	1749
24.2745101452	1758
24.2795000076	1763
24.2845721245	1761
24.2896680832	1765
24.2945361137	1772
24.2995381355	1771
24.3045310974	1761
24.3097310066	1753
24.3145730495	1748
24.3195910454	1733
24.3246109486	1720
24.3299369812	1722
24.3349051476	1717
24.339812994	1706
24.3447329998	1703
24.3496940136	1703
24.3549361229	1694
24.3597970009	1694
24.3649311066	1691
24.3700799942	1688
24.3748381138	1679
24.379912138	1677
24.3848819733	1679
24.3898019791	1677
24.3948450089	1674
24.3997840881	1674
24.4046390057	1682
24.4095339775	1678
24.4147059917	1672
24.4196331501	1680
24.4246060848	1688
24.4297420979	1692
24.4347529411	1691
24.4395079613	1690
24.4445340633	1696
24.4496459961	1706
24.454693079	1715
24.4595730305	1733
24.4647140503	1746
24.4695899487	1764
24.474601984	1743
24.4795491695	1731
24.4846301079	1737
24.4898159504	1717
24.4948289394	1678
24.4996240139	1658
24.5045559406	1665
24.5097031593	1669
24.5146241188	1662
24.5196261406	1658
24.5245480537	1657
24.5297169685	1648
24.5345549583	1635
24.5396051407	1631
24.5445160866	1625
24.5496821404	1620
24.5547130108	1613
24.5597269535	1614
24.5647339821	1625
24.5699551105	1624
24.5747561455	1428
24.5798361301	1120
24.584651947	890
24.5897581577	909
24.5945250988	1095
24.5994241238	1111
24.6045789719	905
24.6096150875	965
24.6144249439	1551
24.6193449497	2582
24.6243290901	2908
24.6293690205	2169
24.6345741749	1563
24.6394109726	1555
24.6444761753	1702
24.6497061253	1700
24.6544520855	1633
24.6594359875	1614
24.6644871235	1634
24.6696851254	1637
24.674530983	1618
24.6795811653	1604
24.6847381592	1602
24.6895229816	1598
24.6946210861	1598
24.6995611191	1591
24.7044019699	1580
24.7095220089	1576
24.714482069	1573
24.7192111015	1564
24.7242450714	1552
24.7292699814	1542
24.7342760563	1533
24.7392020226	1519
24.7441110611	1503
24.7490451336	1485
24.7540841103	1471
24.759196043	1454
24.7641880512	1436
24.7691910267	1415
24.7743480206	1397
24.7792639732	1386
24.784060955	1384
24.7890379429	1375
24.7942650318	1366
24.7992050648	1376
24.8043150902	1389
24.8094460964	1408
24.8143789768	1429
24.8193261623	1449
24.8241801262	1475
24.8294010162	1505
24.8343610764	1540
24.8393681049	1570
24.8442530632	1601
24.8493449688	1629
24.8543760777	1655
24.8595230579	1683
24.8647141457	1711
24.869820118	1726
24.8744630814	1737
24.8793940544	1752
24.8846290112	1763
24.8895161152	1764
24.894354105	1771
24.899394989	1772
24.9044570923	1777
24.9093630314	1775
24.9145560265	1772
24.9196181297	1760
24.9245970249	1753
24.9297311306	1753
24.9345331192	1748
24.9395990372	1735
24.9446260929	1726
24.9497139454	1721
24.9544811249	1712
24.9595551491	1702
24.9647321701	1697
24.9694881439	1696
24.974421978	1691
24.9795429707	1686
24.9846961498	1679
24.9898350239	1670
24.9949021339	1669
24.9996721745	1672
25.0046770573	1673
25.0098831654	1666
25.0148730278	1669
25.0198850632	1676
25.0247321129	1674
25.0297300816	1670
25.0347311497	1675
25.0398030281	1682
25.0449211597	1685
25.0498671532	1689
25.0549659729	1700
25.059784174	1716
25.0647089481	1737
25.0698571205	1724
25.0748021603	1710
25.07990098	1719
25.0848300457	1718
25.0899879932	1677
25.0949161053	1643
25.0998539925	1642
25.1048541069	1649
25.1100571156	1650
25.1150541306	1649
25.119863987	1647
25.1247711182	1636
25.1299631596	1627
25.134770155	1625
25.1397371292	1621
25.1447229385	1613
25.1498889923	1609
25.1547460556	1613
25.159758091	1619
25.1646411419	1619
25.1697700024	1527
25.1746139526	1258
25.1796469688	984
25.1845400333	788
25.1894271374	820
25.1943981647	946
25.1991651058	874
25.2039999962	786
25.2091641426	1204
25.214261055	2134
25.2190389633	2918
25.2238800526	2606
25.2290799618	1870
25.2340409756	1601
25.2390129566	1670
25.2439291477	1694
25.248857975	1636
25.2538421154	1592
25.2589321136	1591
25.2639350891	1598
25.2689230442	1591
25.2741069794	1578
25.2788610458	1574
25.2839920521	1574
25.2889900208	1565
25.2940261364	1557
25.2989850044	1555
25.304008007	1544
25.3089959621	1531
25.3139770031	1534
25.3191659451	1537
25.3239910603	1525
25.3291809559	1517
25.3342220783	1512
25.338958025	1496
25.3438169956	1475
25.3490071297	1455
25.3540301323	1446
25.3589820862	1430
25.3639900684	1411
25.368899107	1392
25.3738510609	1381
25.3789720535	1374
25.3839530945	1364
25.3890490532	1362
25.3941559792	1374
25.3989231586	1387
25.4037380219	1397
25.4089260101	1410
25.4140319824	1433
25.4190821648	1462
25.4239490032	1490
25.4290201664	1516
25.4338600636	1542
25.4388561249	1561
25.4439980984	1581
25.4490690231	1609
25.4542551041	1631
25.4592430592	1648
25.4641661644	1668
25.4691979885	1688
25.4741959572	1695
25.4793491364	1700
25.4841470718	1708
25.4893219471	1709
25.4942030907	1704
25.4992260933	1706
25.5042321682	1711
25.5092360973	1707
25.5144360065	1704
25.519477129	1700
25.5242500305	1687
25.5292310715	1674
25.5342600346	1668
25.5391521454	1664
25.5442740917	1662
25.5494961739	1662
25.5545120239	1655
25.5593261719	1642
25.5643291473	1640
25.5694179535	1635
25.5742740631	1625
25.5794279575	1621
25.5843861103	1620
25.5893981457	1623
25.5945260525	1623
25.5994369984	1621
25.6043541431	1622
25.6094970703	1624
25.6144030094	1626
25.6193301678	1623
25.6242580414	1626
25.6294260025	1632
25.634428978	1641
25.6393361092	1646
25.6447379589	1642
25.649461031	1648
25.654512167	1654
25.6595649719	1657
25.6646771431	1669
25.6694719791	1679
25.6746251583	1689
25.6795070171	1706
25.6845569611	1696
25.6892900467	1689
25.6944711208	1688
25.6995170116	1668
25.704365015	1633
25.7095761299	1615
25.714400053	1610
25.7193801403	1613
25.7243430614	1609
25.7296259403	1613
25.7345449924	1612
25.7392320633	1606
25.7442641258	1591
25.749420166	1579
25.7543480396	1571
25.7593400478	1566
25.7642760277	1569
25.7691240311	1574
25.7742409706	1582
25.7792050838	1591
25.7841510773	1453
25.7890610695	1174
25.7943639755	913
25.7990300655	747
25.8039550781	782
25.8088531494	774
25.8139150143	614
25.8188209534	714
25.8236589432	1443
25.828649044	2515
25.8339550495	2906
25.8387620449	2248
25.8437361717	1668
25.8487789631	1624
25.8538899422	1711
25.8588490486	1660
25.864002943	1575
25.8689131737	1562
25.8738820553	1584
25.8791401386	1582
25.883934021	1561
25.8890240192	1546
25.8940191269	1541
25.8990139961	1540
25.9039521217	1536
25.9090631008	1527
25.9141941071	1517
25.9191739559	1511
25.9239161015	1500
25.9290089607	1492
25.9339950085	1490
25.9389200211	1488
25.9439411163	1476
25.9489920139	1460
25.9540250301	1454
25.9590690136	1438
25.96383214	1416
25.9688501358	1399
25.9738409519	1381
25.9790179729	1366
25.9838750362	1349
25.9888789654	1332
25.9939410686	1311
25.9990940094	1302
26.0040211678	1295
26.0091149807	1298
26.0141870975	1312
26.019037962	1330
26.0239911079	1341
26.0289881229	1359
26.0341081619	1385
26.0389759541	1411
26.0439801216	1438
26.049325943	1463
26.0540921688	1497
26.0591440201	1526
26.064152956	1553
26.0693950653	1584
26.0744709969	1606
26.0792250633	1625
26.0841519833	1647
26.0891830921	1656
26.0943551064	1659
26.0993299484	1663
26.1042261124	1672
26.1093490124	1675
26.1144649982	1672
26.1192190647	1664
26.1241691113	1661
26.1292469501	1668
26.1343491077	1665
26.1392850876	1656
26.1442220211	1650
26.1492869854	1646
26.154489994	1641
26.1594159603	1637
26.1643791199	1634
26.1694321632	1634
26.1745779514	1623
26.1794440746	1612
26.1843621731	1610
26.1893751621	1607
26.1944820881	1606
26.1995899677	1609
26.204267025	1608
26.2092950344	1607
26.2142369747	1613
26.2193880081	1617
26.224501133	1613
26.2296700478	1608
26.2347390652	1612
26.2394421101	1609
26.2445011139	1611
26.2496981621	1617
26.2544620037	1622
26.25948596	1628
26.2646310329	1629
26.2695131302	1634
26.2744920254	1632
26.2795450687	1637
26.2846190929	1653
26.2896690369	1653
26.2948319912	1672
26.2997021675	1694
26.3046500683	1713
26.3095541	1705
26.3148009777	1692
26.3197040558	1697
26.3245420456	1689
26.3296730518	1649
26.3346281052	1614
26.3396589756	1614
26.3447630405	1620
26.3497591019	1626
26.3548500538	1623
26.3597280979	1620
26.3646640778	1614
26.3696100712	1601
26.3747320175	1594
26.3795380592	1589
26.3845641613	1590
26.389644146	1589
26.3943691254	1588
26.3994021416	1592
26.4046940804	1611
26.4096391201	1552
26.4146170616	1294
26.4194231033	1016
26.4245200157	861
26.4292900562	940
26.4343471527	1033
26.439193964	858
26.4441311359	699
26.4492030144	1073
26.4542050362	2041
26.4590401649	2919
26.464195013	2584
26.4691419601	1801
26.4741821289	1542
26.4790570736	1676
26.4840731621	1730
26.4890480042	1648
26.4939770699	1595
26.4991359711	1612
26.5041000843	1629
26.5090229511	1621
26.5139951706	1610
26.5190391541	1602
26.5239591599	1596
26.5290851593	1591
26.5341470242	1588
26.539014101	1586
26.5440781116	1576
26.5491149426	1567
26.5541610718	1567
26.5591790676	1564
26.5641551018	1554
26.5692801476	1548
26.5742280483	1541
26.5792880058	1522
26.584195137	1503
26.5892140865	1494
26.5943760872	1482
26.5993571281	1462
26.604238987	1444
26.6094629765	1424
26.6144120693	1403
26.619546175	1399
26.6243131161	1394
26.6294009686	1389
26.6345069408	1390
26.639539957	1395
26.644297123	1414
26.649379015	1439
26.6545841694	1460
26.6594080925	1478
26.6646671295	1503
26.6696801186	1537
26.6743631363	1563
26.6793839931	1587
26.6844780445	1617
26.6892771721	1640
26.6943900585	1672
26.6992940903	1703
26.7042269707	1723
26.7093341351	1736
26.7144720554	1753
26.7193551064	1769
26.7243549824	1771
26.7295970917	1770
26.7345089912	1778
26.7395100594	1781
26.7443490028	1780
26.7494790554	1780
26.7544870377	1778
26.7595469952	1771
26.764343977	1761
26.7694201469	1751
26.774474144	1747
26.7794160843	1745
26.7844121456	1741
26.7896499634	1732
26.7946550846	1726
26.7994990349	1727
26.804623127	1715
26.8097419739	1705
26.8147499561	1702
26.8196051121	1702
26.8246791363	1697
26.8295030594	1694
26.8345651627	1702
26.8395440578	1712
26.8447551727	1708
26.8497149944	1696
26.854872942	1690
26.8596489429	1695
26.8646669388	1704
26.8698120117	1710
26.874808073	1706
26.8798229694	1707
26.8849201202	1716
26.8898751736	1719
26.8947730064	1718
26.8999791145	1722
26.9048230648	1730
26.9099330902	1738
26.9150891304	1748
26.9199700356	1760
26.9248580933	1768
26.9299991131	1782
26.9349689484	1774
26.9398281574	1761
26.9449260235	1763
26.9500350952	1746
26.9548611641	1697
26.9596781731	1674
26.9647500515	1684
26.9697890282	1700
26.9748780727	1690
26.9798099995	1682
26.9849300385	1678
26.9897201061	1667
26.9949569702	1664
27.0000481606	1662
27.0048921108	1652
27.0100469589	1647
27.0149180889	1651
27.0198600292	1657
27.0248701572	1666
27.02998209	1676
27.0349199772	1548
27.0398690701	1243
27.0449149609	961
27.0497601032	836
27.0546751022	952
27.0596029758	1051
27.0647439957	922
27.0698261261	967
27.0746879578	1544
27.0795800686	2497
27.0845270157	2966
27.089566946	2408
27.0947811604	1762
27.0996201038	1647
27.1047711372	1728
27.1095330715	1718
27.1144821644	1654
27.1195011139	1631
27.1245241165	1637
27.1298451424	1637
27.1345601082	1628
27.1396760941	1616
27.1445920467	1603
27.1498310566	1596
27.1546201706	1592
27.1598200798	1589
27.1648340225	1588
27.1696920395	1583
27.1747000217	1578
27.1797981262	1572
27.1847250462	1568
27.1896710396	1552
27.1949210167	1538
27.1998090744	1536
27.2045760155	1523
27.2096891403	1502
27.2146961689	1488
27.2195341587	1475
27.2245700359	1456
27.2296559811	1438
27.2344031334	1420
27.2393929958	1410
27.244644165	1403
27.249694109	1398
27.2546441555	1396
27.2595691681	1405
27.2646541595	1426
27.2695510387	1444
27.2747170925	1459
27.2796721458	1477
27.2846250534	1503
27.2897591591	1527
27.2945930958	1556
27.2995581627	1583
27.3045430183	1606
27.3096580505	1628
27.3146851063	1650
27.3196270466	1666
27.3246819973	1680
27.329447031	1694
27.3346381187	1703
27.3393290043	1711
27.344381094	1716
27.3496479988	1723
27.3544771671	1729
27.3595020771	1729
27.3646380901	1728
27.3696119785	1722
27.3746500015	1720
27.3795640469	1712
27.3844881058	1702
27.3895230293	1696
27.3945791721	1694
27.3997249603	1690
27.4045960903	1683
27.409692049	1671
27.4147939682	1663
27.4195890427	1662
27.4244980812	1654
27.4296751022	1644
27.4346859455	1638
27.4395930767	1640
27.4446151257	1641
27.4495251179	1643
27.4545309544	1631
27.4595279694	1619
27.4645740986	1623
27.4695539474	1635
27.4745299816	1636
27.4794590473	1629
27.4843790531	1637
27.489346981	1643
27.4945411682	1644
27.4994289875	1640
27.5045170784	1634
27.5096421242	1638
27.5143880844	1643
27.5195131302	1638
27.524379015	1634
27.5294499397	1643
27.5345189571	1646
27.5393540859	1643
27.5443480015	1649
27.5495779514	1653
27.5544221401	1654
27.5595581532	1659
27.5644960403	1679
27.569683075	1696
27.5745179653	1692
27.579570055	1680
27.584692955	1684
27.5895540714	1681
27.5947060585	1646
27.5997359753	1612
27.6045639515	1608
27.6094150543	1613
27.6145730019	1623
27.619601965	1624
27.6246991158	1608
27.629693985	1589
27.634442091	1584
27.6393711567	1584
27.6443221569	1576
27.6493580341	1575
27.6542870998	1571
27.6594390869	1576
27.664345026	1576
27.669314146	1582
27.674268961	1579
27.6794440746	1404
27.6844699383	1109
27.689399004	823
27.6943650246	710
27.6991181374	818
27.7040281296	843
27.7090790272	697
27.713946104	860
27.7189159393	1614
27.7238340378	2599
27.7286770344	2823
27.7336010933	2154
27.7388370037	1639
27.7438230515	1628
27.748816967	1692
27.7540531158	1631
27.7589690685	1552
27.7639250755	1544
27.7689590454	1560
27.7740969658	1556
27.7791631222	1544
27.7839801311	1531
27.7892711163	1521
27.7942459583	1517
27.7991781235	1513
27.8040721416	1501
27.809221983	1485
27.8142900467	1485
27.8191170692	1489
27.824048996	1490
27.8291699886	1479
27.8342990875	1466
27.8390641212	1451
27.844050169	1447
27.8492770195	1438
27.854238987	1419
27.8591020107	1397
27.8642930984	1380
27.8691799641	1360
27.8744311333	1342
27.8794310093	1323
27.8841381073	1304
27.889275074	1287
27.8943469524	1284
27.8994381428	1289
27.904348135	1292
27.9094240665	1293
27.9144029617	1307
27.9193220139	1326
27.9242370129	1354
27.9293830395	1383
27.9343690872	1405
27.9391381741	1422
27.9442119598	1449
27.9491651058	1482
27.954128027	1510
27.9592900276	1541
27.9641699791	1571
27.9693760872	1590
27.9743449688	1609
27.9792280197	1631
27.9841680527	1645
27.9894490242	1652
27.9944310188	1659
27.9994871616	1664
28.004306078	1669
28.0094940662	1665
28.0144701004	1663
28.0193340778	1668
28.0241861343	1667
28.029348135	1658
28.0342490673	1649
28.0391900539	1641
28.0441820621	1634
28.0493900776	1636
28.0541789532	1631
28.0593011379	1621
28.0641710758	1614
28.0693280697	1608
28.0741281509	1602
28.0789830685	1600
28.0841200352	1595
28.0891671181	1588
28.0943651199	1588
28.099394083	1588
28.104072094	1588
28.1091060638	1589
28.1142101288	1595
28.1190340519	1596
28.1240329742	1594
28.1292569637	1592
28.1340661049	1593
28.1390631199	1595
28.1440069675	1601
28.1490681171	1606
28.1539440155	1601
28.1591470242	1604
28.163998127	1615
28.1688270569	1623
28.1740479469	1621
28.1790781021	1618
28.1839189529	1625
28.1890029907	1641
28.1941270828	1649
28.1989290714	1657
28.2038919926	1672
28.2090489864	1699
28.2140820026	1704
28.2192530632	1690
28.224214077	1685
28.2292351723	1673
28.2343211174	1630
28.239385128	1600
28.2441880703	1607
28.2492141724	1619
28.2544970512	1611
28.2592661381	1600
28.2641470432	1604
28.2693941593	1603
28.2743749619	1585
28.2793171406	1576
28.2841470242	1584
28.2891430855	1586
28.2940440178	1584
28.2992401123	1587
28.3039939404	1588
28.3092260361	1604
28.3142299652	1540
28.319106102	1280
28.3239970207	994
28.3288290501	846
28.3338420391	919
28.3386609554	995
28.3436341286	826
28.3486089706	664
28.3533060551	1011
28.3585891724	1947
28.3634409904	2881
28.3685190678	2615
28.3736200333	1816
28.378467083	1520
28.3833229542	1650
28.3882391453	1723
28.3934950829	1648
28.3985650539	1592
28.4034240246	1606
28.4087090492	1622
28.413547039	1612
28.4185049534	1601
28.4237699509	1594
28.4286739826	1592
28.4335830212	1587
28.4388740063	1579
28.4436590672	1579
28.4486730099	1581
28.4537210464	1572
28.4586610794	1566
28.4636390209	1561
28.4687139988	1555
28.4738121033	1542
28.4787919521	1529
28.4836411476	1522
28.4887111187	1505
28.4938650131	1487
28.4989521503	1475
28.5036971569	1461
28.5087590218	1446
28.5140240192	1422
28.5188090801	1407
28.5237929821	1394
28.5287790298	1386
28.533741951	1385
28.5387949944	1384
28.5437190533	1395
28.5488481522	1418
28.5538671017	1434
28.559043169	1446
28.5638720989	1472
28.5688540936	1502
28.5738151073	1524
28.5789151192	1553
28.5838930607	1590
28.588958025	1623
28.5940871239	1651
28.5988790989	1677
28.6039700508	1697
28.6091940403	1718
28.6140711308	1741
28.6192500591	1760
28.6240899563	1768
28.6292331219	1776
28.6340870857	1784
28.6390740871	1790
28.6439380646	1791
28.6492130756	1793
28.6541290283	1785
28.6592049599	1769
28.6640040874	1772
28.6691429615	1771
28.6744961739	1763
28.6791520119	1754
28.6840131283	1752
28.6892390251	1753
28.6941120625	1744
28.6990990639	1727
28.7040679455	1721
28.7093260288	1712
28.7143349648	1712
28.7192440033	1712
28.7243671417	1706
28.7292511463	1704
28.734318018	1704
28.7393071651	1701
28.7442209721	1699
28.7494521141	1701
28.7543549538	1699
28.7592711449	1702
28.7645151615	1707
28.7695100307	1712
28.7744259834	1714
28.7793409824	1716
28.7842359543	1720
28.7892460823	1715
28.7943890095	1711
28.7994201183	1710
28.8043320179	1709
28.8094360828	1715
28.814260006	1726
28.8191030025	1730
28.8244740963	1728
28.8294241428	1724
28.8344290257	1724
28.8391809464	1732
28.8442399502	1739
28.8492860794	1750
28.8541359901	1758
28.8592979908	1760
28.8642361164	1781
28.8693881035	1769
28.8744511604	1759
28.8793570995	1763
28.8841710091	1742
28.889316082	1700
28.894315958	1682
28.8992259502	1687
28.9043121338	1696
28.9094259739	1696
28.9142320156	1687
28.9194879532	1680
28.9242191315	1672
28.9293849468	1668
28.9344360828	1658
28.9394769669	1640
28.9442269802	1639
28.9492061138	1651
28.9541490078	1656
28.9591281414	1663
28.9641489983	1673
28.9694321156	1542
28.9743411541	1246
28.9792990685	945
28.9842009544	805
28.9893450737	912
28.9941411018	987
28.9990620613	840
29.0038170815	874
29.0086619854	1458
29.0138349533	2413
29.0187220573	2966
29.0237710476	2437
29.0287330151	1761
29.0337369442	1623
29.0386891365	1712
29.0436999798	1725
29.0487880707	1666
29.0537610054	1635
29.0589401722	1635
29.0638451576	1636
29.0687410831	1629
29.0739619732	1619
29.0789010525	1614
29.08375597	1609
29.0886590481	1603
29.0939860344	1596
29.0987820625	1591
29.1037740707	1582
29.1086461544	1574
29.1138710976	1573
29.1190209389	1572
29.1239380836	1556
29.1288621426	1544
29.1338281631	1535
29.1389000416	1520
29.1439020634	1504
29.1489379406	1490
29.1541640759	1473
29.1589801311	1456
29.1639690399	1433
29.1689600945	1412
29.1742370129	1398
29.1791689396	1395
29.183989048	1397
29.1890821457	1392
29.1940059662	1397
29.1992530823	1416
29.2039861679	1430
29.2091579437	1445
29.214179039	1472
29.2191560268	1499
29.2238891125	1521
29.2288980484	1552
29.2340991497	1581
29.2391221523	1603
29.2440049648	1621
29.2489590645	1643
29.2539069653	1667
29.2589831352	1690
29.2639689445	1704
29.2690200806	1713
29.2741670609	1722
29.2790400982	1732
29.2840199471	1734
29.2888450623	1737
29.2940330505	1738
29.2989561558	1737
29.3038671017	1739
29.3091919422	1736
29.3140120506	1731
29.3189589977	1726
29.3240139484	1716
29.3291671276	1710
29.3340780735	1702
29.3393599987	1690
29.34416008	1684
29.3491420746	1683
29.3541820049	1675
29.3592979908	1664
29.3641531467	1666
29.3694081306	1658
29.3743700981	1648
29.3791749477	1645
29.3844029903	1644
29.3893640041	1642
29.3943829536	1638
29.3993020058	1637
29.404323101	1642
29.409389019	1641
29.4143800735	1639
29.419273138	1643
29.4241859913	1642
29.4294071198	1642
29.4344170094	1650
29.4392490387	1650
29.4440801144	1646
29.4493279457	1644
29.454447031	1648
29.4593601227	1651
29.4642930031	1654
29.4694149494	1656
29.4744291306	1653
29.4795470238	1658
29.4846980572	1660
29.4898600578	1662
29.4948470592	1665
29.4996349812	1674
29.5046579838	1682
29.5097801685	1694
29.5147809982	1702
29.5195219517	1687
29.5246939659	1686
29.5296750069	1691
29.5345480442	1665
29.5394170284	1623
29.5443911552	1601
29.5497031212	1598
29.5546140671	1608
29.55966115	1613
29.5646300316	1611
29.5696310997	1606
29.5746450424	1596
29.5795280933	1593
29.5846040249	1587
29.5896501541	1585
29.5944471359	1587
29.5994770527	1584
29.6045501232	1584
29.6096720695	1588
29.6147110462	1587
29.6198160648	1421
29.624808073	1129
29.6296429634	848
29.6344590187	700
29.6394560337	792
29.6441831589	844
29.6491341591	713
29.6541740894	832
29.658821106	1537
29.6638600826	2524
29.6688959599	2870
29.674118042	2236
29.6791341305	1678
29.6839950085	1637
29.6890439987	1702
29.6941180229	1659
29.699365139	1589
29.7041230202	1571
29.7093579769	1582
29.7143919468	1577
29.7190909386	1559
29.7240409851	1546
29.7291741371	1547
29.7340180874	1546
29.738986969	1538
29.7440209389	1525
29.7490580082	1517
29.754171133	1510
29.7590441704	1505
29.7641551495	1497
29.7692670822	1492
29.7744040489	1494
29.7791919708	1484
29.78414011	1460
29.7892000675	1436
29.794326067	1428
29.7991521358	1421
29.8040809631	1404
29.8093211651	1383
29.8140699863	1373
29.8190450668	1360
29.8240909576	1338
29.8293220997	1320
29.8343510628	1314
29.8393280506	1309
29.8441259861	1315
29.8491530418	1333
29.8541679382	1347
29.8591761589	1363
29.8641760349	1388
29.8694021702	1410
29.874532938	1430
29.8791949749	1452
29.8843080997	1482
29.8893811703	1506
29.8943860531	1536
29.8993680477	1571
29.9045090675	1593
29.9093410969	1604
29.9146771431	1616
29.9194600582	1632
29.9247040749	1648
29.9296710491	1664
29.9346749783	1669
29.939428091	1667
29.9445619583	1672
29.9496519566	1669
29.9545769691	1665
29.9596259594	1663
29.9646100998	1659
29.9695160389	1657
29.9744920731	1646
29.9795310497	1640
29.9844679832	1638
29.9897279739	1629
29.9947299957	1624
29.9995269775	1621
30.0043990612	1607
