0.00010085105896	5
0.000211000442505	1331
0.000311851501465	1466
0.000411987304688	1609
0.000512838363647	1754
0.00061297416687	1900
0.00071382522583	2042
0.000813961029053	2178
0.000914812088013	2296
0.00101494789124	2397
0.0011157989502	2477
0.00121593475342	2534
0.00131678581238	2566
0.0014169216156	2571
0.00151777267456	2549
0.00161790847778	2504
0.00171899795532	2441
0.00181984901428	2362
0.0019199848175	2272
0.00202083587646	2173
0.00212097167969	2069
0.00222182273865	1962
0.00232195854187	1860
0.00242280960083	1765
0.00252294540405	1678
0.00262379646301	1600
0.00272393226624	1531
0.0028247833252	1477
0.00292491912842	1434
0.00302577018738	1404
0.0031259059906	1385
0.00322699546814	1376
0.0033278465271	1376
0.00342798233032	1383
0.00352883338928	1398
0.0036289691925	1419
0.00372982025146	1443
0.00382995605469	1467
0.00393080711365	1491
0.00403094291687	1512
0.00413179397583	1533
0.00423192977905	1554
0.00433278083801	1571
0.00443291664124	1585
0.0045337677002	1595
0.00463390350342	1605
0.00473499298096	1609
0.00483584403992	1615
0.00495290756226	1617
0.00505399703979	1615
0.00515484809875	1612
0.00525498390198	1607
0.00535583496094	1601
0.00545597076416	1594
0.00555682182312	1587
0.00565695762634	1581
0.0057578086853	1574
0.00585794448853	1568
0.00595879554749	1566
0.00605893135071	1565
0.00615978240967	1564
0.00625991821289	1562
0.00636076927185	1561
0.00646090507507	1560
0.00656199455261	1560
0.00666284561157	1559
0.00676298141479	1558
0.00686383247375	1557
0.00696396827698	1556
0.00706481933594	1556
0.00716495513916	1558
0.00726580619812	1560
0.00736594200134	1562
0.0074667930603	1564
0.00756692886353	1565
0.00766777992249	1565
0.00776791572571	1567
0.00786876678467	1567
0.00796890258789	1567
0.00806999206543	1566
0.00817084312439	1563
0.00827097892761	1563
0.00837182998657	1563
0.00847196578979	1565
0.00857281684875	1564
0.00867295265198	1562
0.00877380371094	1560
0.00887393951416	1557
0.00897479057312	1554
0.00907492637634	1551
0.0091757774353	1549
0.00927591323853	1546
0.00937676429749	1542
0.00947690010071	1542
0.00957798957825	1541
0.00967884063721	1543
0.00977897644043	1543
0.00987982749939	1542
0.00997996330261	1541
0.0100808143616	1541
0.0101809501648	1540
0.0102818012238	1540
0.010381937027	1539
0.0104827880859	1536
0.0105829238892	1536
0.0106837749481	1533
0.0107839107513	1536
0.0108850002289	1537
0.0109858512878	1538
0.0110859870911	1538
0.01118683815	1537
0.0112869739532	1536
0.0113878250122	1533
0.0114879608154	1533
0.0115888118744	1530
0.0116889476776	1527
0.0117897987366	1524
0.0118899345398	1522
0.0119907855988	1522
0.012090921402	1522
0.0121917724609	1522
0.0122919082642	1520
0.0123929977417	1519
0.0124938488007	1519
0.0125939846039	1517
0.0126948356628	1516
0.0127949714661	1514
0.012895822525	1514
0.0129959583282	1514
0.0130968093872	1517
0.0131969451904	1518
0.0132977962494	1521
0.0133979320526	1523
0.0134987831116	1523
0.0135989189148	1521
0.0136997699738	1520
0.013799905777	1519
0.0139009952545	1517
0.0140018463135	1515
0.0141019821167	1511
0.0142028331757	1510
0.0143029689789	1508
0.0144038200378	1509
0.0145039558411	1510
0.0146048069	1509
0.0147049427032	1507
0.0148057937622	1507
0.0149059295654	1506
0.0150067806244	1504
0.0151069164276	1503
0.0152077674866	1500
0.0153079032898	1499
0.0154089927673	1497
0.0155098438263	1497
0.0156099796295	1498
0.0157108306885	1499
0.0158109664917	1499
0.0159118175507	1496
0.0160119533539	1495
0.0161128044128	1493
0.0162129402161	1490
0.016313791275	1488
0.0164139270782	1484
0.0165147781372	1481
0.0166149139404	1480
0.0167157649994	1479
0.0168159008026	1479
0.0169169902802	1481
0.0170178413391	1481
0.0171179771423	1481
0.0172188282013	1481
0.0173189640045	1480
0.0174198150635	1479
0.0175199508667	1479
0.0176208019257	1477
0.0177209377289	1476
0.0178217887878	1474
0.0179219245911	1476
0.01802277565	0
0.0181229114532	1689
0.0182240009308	1688
0.0183248519897	1686
0.018424987793	1685
0.0185258388519	1682
0.0186259746552	1678
0.0187268257141	1675
0.0188269615173	1672
0.0189278125763	1671
0.0190279483795	1672
0.0191287994385	1672
0.0192289352417	1672
0.0193297863007	1670
0.0194299221039	1670
0.0195307731628	1668
0.0196309089661	1668
0.0197319984436	1667
0.0198328495026	1665
0.0199329853058	1661
0.0200338363647	1659
0.020133972168	1659
0.0202348232269	1661
0.0203349590302	1663
0.0204358100891	1664
0.0205359458923	1665
0.0206367969513	1666
0.0207369327545	1667
0.0208377838135	1670
0.0209498405457	1670
0.0210499763489	1671
0.0211567878723	1670
0.0215458869934	1670
0.0222599506378	1670
0.0231699943542	1672
0.0239579677582	1672
0.0244197845459	1671
0.0253159999847	1669
0.0258469581604	1667
0.0264658927917	1663
0.0272078514099	1658
0.0281128883362	1654
0.028737783432	1649
0.0294017791748	1643
0.0304658412933	1638
0.0307347774506	1635
0.0314528942108	1633
0.0322048664093	1632
0.0332138538361	1628
0.0335359573364	1625
0.034649848938	1623
0.0349318981171	1622
0.0358009338379	1620
0.036750793457	1620
0.0369429588318	1619
0.0378987789154	1620
0.0386219024658	1622
0.039361000061	1625
0.0399799346924	1630
0.0406107902527	1634
0.0413458347321	1635
0.0423409938812	1637
0.0426459312439	1639
0.0433588027954	1640
0.0440847873688	1639
0.0451707839966	1638
0.0454638004303	1636
0.0463359355927	1635
0.0468149185181	1634
0.0477979183197	1635
0.048928976059	1637
0.0490298271179	1638
0.0496139526367	1639
0.0503129959106	1639
0.0510058403015	1639
0.0519948005676	1640
0.052402973175	1640
0.0535688400269	1641
0.054703950882	1640
0.0548048019409	1640
0.0554378032684	1641
0.0558969974518	1642
0.0566129684448	1644
0.0574049949646	1647
0.0584058761597	1647
0.0589699745178	1647
0.0599408149719	1646
0.0602188110352	1646
0.0611507892609	1646
0.0617637634277	1643
0.0627388954163	1640
0.0630469322205	1638
0.0638799667358	1637
0.0645768642426	1638
0.0652678012848	1635
0.0662109851837	1638
0.0673549175262	1637
0.0674557685852	1637
0.0680568218231	1637
0.0690269470215	1636
0.0694308280945	1636
0.0704147815704	1635
0.0708348751068	1636
0.0714128017426	1636
0.0724549293518	1637
0.0727927684784	1639
0.0736548900604	1641
0.0743718147278	1643
0.0753569602966	1641
0.0756809711456	1641
0.0764329433441	1640
0.0771179199219	1639
0.0778617858887	1637
0.0788238048553	1635
0.0792589187622	1632
0.0799579620361	1631
0.0806639194489	1630
0.0813908576965	1632
0.0823187828064	1632
0.0827369689941	1635
0.0837118625641	1635
0.0841429233551	1635
0.0848569869995	1634
0.0855848789215	1635
0.0862720012665	1634
0.0869698524475	1631
0.0878908634186	1630
0.0890398025513	1628
0.0891399383545	1627
0.09001994133	1627
0.0904049873352	1626
0.0911438465118	1624
0.0921747684479	1623
0.0924859046936	1621
0.0932188034058	1617
0.0939629077911	1615
0.0946099758148	1612
0.0957489013672	1608
0.0960438251495	1607
0.0968239307404	1603
0.0975279808044	1605
0.0982158184052	1606
0.0989229679108	1609
0.099634885788	1610
0.100332975388	1610
0.101054906845	1610
0.101988792419	1613
0.102403879166	1614
0.103148937225	1614
0.104112863541	1614
0.104524850845	1616
0.105312824249	1618
0.106169939041	1620
0.106691837311	1624
0.107344865799	1628
0.108330965042	1631
0.109447956085	1632
0.109548807144	1633
0.110167980194	1634
0.11111998558	1635
0.11153793335	1634
0.112307786942	1633
0.112991809845	1633
0.113690853119	1634
0.114637851715	1636
0.115041971207	1643
0.115766763687	1648
0.116733789444	1653
0.117844820023	1657
0.117944955826	1662
0.118833780289	1664
0.119893789291	1664
0.119993925095	1659
0.121076822281	1648
0.121361970901	1635
0.122127771378	1618
0.123073816299	1597
0.123424768448	1576
0.124468803406	1552
0.124923944473	1521
0.125624895096	1489
0.126573801041	1458
0.12762093544	1426
0.127728939056	1391
0.128354787827	1356
0.129368782043	1319
0.129807949066	1280
0.130529880524	1242
0.131244897842	1202
0.131926774979	1161
0.132897853851	1119
0.133337974548	1076
0.134257793427	1034
0.135005950928	992
0.136226892471	958
0.136327981949	928
0.137151956558	900
0.137270927429	873
0.138328790665	850
0.138428926468	830
0.139337778091	815
0.139437913895	802
0.140316963196	792
0.141147851944	787
0.141263961792	783
0.142659902573	780
0.14276099205	774
0.1433198452	767
0.144238948822	758
0.144339799881	747
0.145576000214	732
0.145676851273	712
0.1466588974	688
0.146759986877	660
0.147887945175	631
0.147988796234	600
0.149137973785	567
0.149238824844	530
0.150338888168	497
0.150439977646	464
0.151573896408	434
0.151674985886	411
0.152746915817	397
0.152847766876	389
0.153961896896	390
0.154064893723	400
0.155188798904	420
0.155288934708	454
0.156429767609	501
0.156529903412	562
0.157705783844	630
0.157805919647	709
0.158914804459	792
0.159014940262	888
0.160111904144	990
0.160212993622	1100
0.161050796509	1232
0.161735773087	1369
0.162490844727	1506
0.16321182251	1647
0.163896799088	1791
0.164868831635	1934
0.16531085968	2076
0.165997982025	2208
0.166694879532	2333
0.167645931244	2438
0.168029785156	2523
0.168794870377	2583
0.169489860535	2620
0.170210838318	2633
0.17090177536	2617
0.17159986496	2582
0.172573804855	2528
0.173008918762	2458
0.173759937286	2375
0.174417972565	2282
0.17536687851	2182
0.175768852234	2080
0.176508903503	1975
0.17716884613	1877
0.177914857864	1783
0.178610801697	1699
0.179313898087	1624
0.180022954941	1562
0.180712938309	1515
0.18168592453	1483
0.182080984116	1461
0.183083772659	1453
0.184283971786	1449
0.184384822845	1457
0.184904813766	1470
0.185617923737	1487
0.186590909958	1508
0.186993837357	1531
0.187733888626	1554
0.188428878784	1576
0.189382791519	1600
0.189842939377	1622
0.190552949905	1639
0.191247940063	1654
0.191957950592	1665
0.192906856537	1671
0.193980932236	1674
0.194081783295	1674
0.194728851318	1672
0.195715904236	1667
0.19611787796	1658
0.197120904922	1652
0.197528839111	1644
0.198507785797	1638
0.198925971985	1631
0.199659824371	1624
0.200633764267	1617
0.201062917709	1611
0.202037811279	1606
0.202456951141	1601
0.20344376564	1598
0.203848838806	1596
0.20459485054	1594
0.205530881882	1594
0.205958843231	1597
0.207090854645	1602
0.207308769226	1606
0.208092927933	1608
0.20907497406	1612
0.209454774857	1613
0.210170984268	1614
0.211154937744	1614
0.211557865143	1614
0.212561845779	1613
0.212975978851	1610
0.213940858841	1610
0.214355945587	1610
0.215107917786	1611
0.216048955917	1611
0.216458797455	1611
0.217454910278	1609
0.217891931534	1607
0.218876838684	1606
0.219998836517	1605
0.220098972321	1603
0.220987796783	1601
0.221387863159	1600
0.2223777771	1598
0.222781896591	1601
0.223662853241	1602
0.22447681427	1603
0.224885940552	1602
0.225884914398	1602
0.226286888123	1601
0.226974964142	1598
0.227666854858	1597
0.228666782379	1594
0.229825973511	1593
0.22992682457	1589
0.230536937714	1587
0.231484889984	1588
0.23188996315	1589
0.232594966888	1589
0.233332872391	1588
0.234280824661	1589
0.234691858292	1590
0.235392808914	1591
0.236335992813	1593
0.236708879471	1595
0.238148927689	1599
0.238249778748	1602
0.239244937897	1606
0.239646911621	1611
0.240429878235	1617
0.241113901138	1617
0.241810798645	1619
0.242760896683	1618
0.243167877197	1614
0.243894815445	1612
0.244598865509	1607
0.245520830154	1602
0.245969772339	1594
0.246988773346	1590
0.247395992279	1585
0.248108863831	1582
0.249076843262	1580
0.249529838562	1575
0.250231981277	1571
0.250915765762	1566
0.251862764359	1565
0.252286911011	1560
0.253040790558	1557
0.253713846207	1556
0.254414796829	1553
0.255394935608	1551
0.255801916122	1553
0.256700992584	1554
0.257120847702	1556
0.257942914963	1555
0.258897781372	1557
0.260007858276	1558
0.26010799408	1558
0.260700941086	1559
0.26166176796	1557
0.262103796005	1557
0.26283288002	1554
0.263547897339	1554
0.264518976212	1555
0.264928817749	1557
0.265658855438	1559
0.26661491394	1559
0.266983985901	1558
0.267758846283	1557
0.268671989441	1557
0.269101858139	1557
0.270473957062	1554
0.270574808121	1551
0.271377801895	1550
0.271982908249	1548
0.272688865662	1548
0.273415803909	1549
0.274080991745	1551
0.274763822556	1548
0.275508880615	1545
0.276161909103	1543
0.276892900467	1539
0.277616977692	1535
0.278594970703	1531
0.278967857361	1525
0.279717922211	1521
0.280419826508	1518
0.281089782715	1516
0.281777858734	1515
0.282525777817	1514
0.283490896225	1512
0.283900976181	1509
0.284806966782	1508
0.285218954086	1506
0.285932779312	1505
0.286687850952	1502
0.2876329422	1501
0.288761854172	1500
0.288861989975	1501
0.289491891861	1502
0.290187835693	1504
0.29119682312	1507
0.29160785675	1506
0.29230594635	1506
0.293105840683	1505
0.294002771378	1504
0.29443192482	1503
0.295415878296	1500
0.29582285881	1495
0.296781778336	1491
0.297293901443	1489
0.297965764999	1485
0.298649787903	1484
0.299345970154	1481
0.300050973892	1478
0.300746917725	1474
0.301452875137	1470
0.302184820175	1466
0.302864789963	1462
0.303798913956	1459
0.304264783859	1456
0.304900884628	1454
0.305875778198	1453
0.306494951248	1454
0.30707192421	1457
0.307778835297	1460
0.308662891388	1460
0.309082984924	1464
0.309870958328	1467
0.310510873795	1471
0.311297893524	1473
0.312232971191	1473
0.312642812729	1472
0.313651800156	1469
0.314062833786	1467
0.314797878265	1466
0.315493822098	1465
0.316448926926	1461
0.317561864853	1455
0.317662000656	1449
0.318532943726	1442
0.318978786469	1436
0.319712877274	1430
0.320678949356	1422
0.32107591629	1417
0.322051763535	1411
0.322480916977	1409
0.323200941086	1408
0.323862791061	1407
0.324602842331	1405
0.325554847717	1404
0.325961828232	1402
0.326717853546	1399
0.327673912048	1398
0.328064918518	1397
0.329084873199	1395
0.329480886459	1393
0.330486774445	1392
0.330895900726	1394
0.331638813019	1394
0.332352876663	1395
0.333065986633	1394
0.333740949631	1394
0.334438800812	1393
0.335386991501	1392
0.335750818253	1390
0.336475849152	1388
0.337505817413	1386
0.337933778763	1385
0.338931798935	1384
0.33930683136	1385
0.340065956116	1387
0.34105181694	1389
0.341450929642	1389
0.342414855957	1389
0.342832803726	1389
0.343545913696	1388
0.34429693222	1388
0.345190763474	1388
0.346315860748	1387
0.346415996552	1386
0.347034931183	1385
0.348020792007	1387
0.348413944244	1389
0.349423885345	1392
0.349844932556	1394
0.350814819336	1395
0.351259946823	1395
0.351958990097	1396
0.352927923203	1396
0.353340864182	1398
0.354318857193	1397
0.354732990265	1398
0.355464935303	1399
0.356420993805	1402
0.356855869293	1406
0.357824802399	1408
0.358239889145	1410
0.358987808228	1410
0.359699964523	1410
0.36039686203	1412
0.361100912094	1412
0.361796855927	1410
0.3624958992	1412
0.36347079277	1412
0.364597797394	1413
0.364697933197	1416
0.365552902222	1419
0.366661787033	1422
0.366761922836	1424
0.367619991302	1426
0.368059873581	1428
0.368822813034	1432
0.369761943817	1434
0.370261907578	1435
0.371158838272	1437
0.371543884277	1439
0.372315883636	1443
0.373297929764	1447
0.374396800995	1452
0.374496936798	1456
0.375152826309	1460
0.375819921494	1462
0.376520872116	1465
0.377252817154	1469
0.377902984619	1472
0.378626823425	1476
0.379343986511	1479
0.380000829697	1483
0.381050825119	1489
0.381425857544	1496
0.382407903671	1504
0.383533000946	1512
0.383633852005	1518
0.384288787842	1526
0.385200977325	1533
0.38564491272	1541
0.386379957199	1548
0.38733291626	1554
0.387745857239	1560
0.388479948044	1566
0.389141798019	1573
0.389895915985	1581
0.390555858612	1588
0.391524791718	1594
0.391940832138	1600
0.392929792404	1605
0.393374919891	1610
0.394107818604	1614
0.394773960114	1617
0.395493984222	1619
0.396441936493	1620
0.39758181572	1625
0.397681951523	1629
0.39825296402	1636
0.399309873581	1639
0.399657964706	1644
0.400372982025	1648
0.401105880737	1650
0.401808977127	1652
0.402518987656	1656
0.403313875198	1659
0.403918981552	1661
0.404629945755	1662
0.405344963074	1666
0.406000852585	1671
0.406720876694	1676
0.407408952713	1682
0.408104896545	1687
0.409110784531	1690
0.409482955933	1695
0.410206794739	1698
0.410938978195	1701
0.41162776947	1704
0.412580966949	1704
0.413026809692	1706
0.413719892502	1708
0.414438962936	1712
0.415139913559	1716
0.41584277153	1719
0.416793823242	1721
0.417271852493	1724
0.418190956116	1725
0.418625831604	1728
0.41934800148	1729
0.420040845871	1730
0.420735836029	1731
0.421441793442	1732
0.42215681076	1733
0.423091888428	1737
0.423508882523	1739
0.424234867096	1744
0.424971818924	1745
0.425919771194	1745
0.426333904266	1746
0.427314996719	1746
0.427730798721	1746
0.428459882736	1745
0.429379940033	1743
0.429828882217	1739
0.430595874786	1743
0.431241989136	1746
0.432291984558	1750
0.432649850845	1754
0.433621883392	1757
0.434066772461	1762
0.43478178978	1767
0.435745954514	1775
0.436153888702	1783
0.436895847321	1790
0.437585830688	1798
0.438315868378	1804
0.439287900925	1809
0.440375804901	1817
0.440475940704	1821
0.441113948822	1824
0.442065954208	1823
0.442479848862	1821
0.443196773529	1819
0.443891763687	1813
0.444869995117	1808
0.445282936096	1800
0.446006774902	1793
0.446962833405	1786
0.44738483429	1780
0.448129892349	1776
0.449074983597	1772
0.449487924576	1767
0.45046377182	1763
0.450900793076	1760
0.451637983322	1758
0.45233798027	1755
0.453044891357	1754
0.453738927841	1751
0.454674959183	1749
0.455112934113	1748
0.455842971802	1749
0.45653796196	1752
0.457231998444	1754
0.458206892014	1755
0.459416866302	1756
0.45951795578	1756
0.459988832474	1756
0.460975885391	1754
0.461347818375	1754
0.462107896805	1752
0.462837934494	1749
0.463809967041	1748
0.464208841324	1747
0.465220928192	1749
0.465665817261	1748
0.466391801834	1750
0.467110872269	1751
0.46804189682	1749
0.468456983566	1747
0.469158887863	1747
0.469896793365	1746
0.470616817474	1745
0.471565961838	1744
0.471980810165	1742
0.47271490097	1742
0.473411798477	1744
0.474347829819	1744
0.474764823914	1744
0.475749969482	1744
0.476900815964	1743
0.477054834366	1744
0.477590799332	1743
0.478261947632	1741
0.479312896729	1739
0.479699850082	1735
0.480429887772	1736
0.481133937836	1734
0.481836795807	1739
0.482533931732	1741
0.483311891556	1741
0.484178781509	1741
0.484608888626	1739
0.485334873199	1740
0.486311912537	1740
0.486699819565	1738
0.487449884415	1737
0.48840379715	1735
0.488823890686	1736
0.48956489563	1737
0.490321874619	1738
0.490953922272	1739
0.491652965546	1740
0.492326974869	1736
0.493031978607	1735
0.493991851807	1732
0.494421958923	1730
0.49517583847	1728
0.495893001556	1725
0.49683880806	1725
0.49796795845	1724
0.498068809509	1725
0.49894285202	1728
0.499347925186	1729
0.500342845917	1730
0.501458883286	1730
0.501559972763	1731
0.502423763275	1731
0.502842903137	1730
0.503579854965	1730
0.504305839539	1729
0.505019903183	1729
0.505670785904	1731
0.50637793541	1735
0.507084846497	1737
0.508056879044	1739
0.508472919464	1739
0.509454965591	1740
0.509855985641	1739
0.510820865631	1738
0.511232852936	1737
0.51201581955	1733
0.512703895569	1731
0.513418912888	1730
0.51411485672	1729
0.514845848083	1729
0.515798807144	1730
0.51692199707	1730
0.517030954361	1729
0.517641782761	1728
0.518350839615	1726
0.519321918488	1725
0.519714832306	1726
0.52042889595	1724
0.521394968033	1723
0.522520780563	1723
0.522620916367	1725
0.523256778717	1729
0.52393579483	1731
0.524613857269	1732
0.525620937347	1732
0.526696920395	1731
0.52682185173	1730
0.527458906174	1729
0.528448820114	1726
0.52885389328	1725
0.529569864273	1724
0.530327796936	1720
0.531241893768	1721
0.531641960144	1722
0.532375812531	1724
0.533331871033	1723
0.533677816391	1723
0.53443479538	1723
0.53515291214	1724
0.535849809647	1723
0.536816835403	1723
0.537260770798	1723
0.53820681572	1720
0.539344787598	1720
0.539444923401	1723
0.540332794189	1724
0.54069685936	1725
0.541718959808	1725
0.542131900787	1724
0.54286980629	1722
0.54358792305	1720
0.544536828995	1719
0.544967889786	1714
0.545942783356	1711
0.546394824982	1708
0.547079801559	1706
0.548039913177	1705
0.548454999924	1707
0.549180984497	1707
0.550147771835	1701
0.550566911697	1705
0.55153799057	1703
0.551953792572	1702
0.552701950073	1702
0.553664922714	1700
0.554029941559	1699
0.554772853851	1697
0.55552482605	1697
0.55642580986	1699
0.556884765625	1703
0.557875871658	1704
0.558295965195	1704
0.5592918396	1704
0.55969285965	1706
0.560455799103	1706
0.561386823654	1706
0.561725854874	1705
0.562811851501	1705
0.563285827637	1705
0.564203977585	1707
0.564614772797	1708
0.565359830856	1712
0.56605386734	1714
0.566763877869	1714
0.567716836929	1716
0.56812787056	1716
0.569116830826	1716
0.569535970688	1716
0.570501804352	1715
0.570907831192	1716
0.57192492485	1714
0.572292804718	1715
0.573075771332	1717
0.573739767075	1717
0.574494838715	1718
0.575160980225	1715
0.575890779495	1712
0.576586961746	1711
0.577296972275	1708
0.57800579071	1705
0.57868885994	1701
0.579639911652	1697
0.580015897751	1694
0.580759763718	1693
0.581502914429	1693
0.582456827164	1693
0.582864999771	1693
0.583583831787	1694
0.584301948547	1693
0.585301876068	1694
0.585661888123	1693
0.58665895462	1695
0.587100982666	1695
0.587768793106	1695
0.588505983353	1696
0.589432001114	1698
0.589909791946	1700
0.590889930725	1702
0.591302871704	1702
0.59228682518	1702
0.592657804489	1701
0.593428850174	1698
0.594082832336	1698
0.59480881691	1696
0.595803976059	1696
0.596176862717	1693
0.597160816193	1694
0.597609996796	1695
0.598342895508	1698
0.599056959152	1698
0.600001811981	1701
0.600416898727	1701
0.601153850555	1702
0.601874828339	1702
0.602569818497	1703
0.603509902954	1703
0.604625940323	1703
0.604734897614	1703
0.605355978012	1703
0.606309890747	1703
0.606740951538	1705
0.607729911804	1705
0.608167886734	1703
0.608881950378	1702
0.609852790833	1699
0.610300779343	1698
0.61133980751	1695
0.61164689064	1691
0.612660884857	1690
0.613033771515	1687
0.613783836365	1687
0.614484786987	1687
0.615165948868	1688
0.616145849228	1689
0.616566896439	1689
0.617331981659	1688
0.618009805679	1688
0.618734836578	1685
0.619673967361	1689
0.620875835419	1689
0.621030807495	1690
0.621517896652	1690
0.622223854065	1692
0.622929811478	1694
0.623631000519	1697
0.624340772629	1699
0.625338792801	1701
0.626346826553	1700
0.626480817795	1699
0.627390861511	1699
0.627787828445	1699
0.628775835037	1699
0.629896879196	1695
0.630005836487	1697
0.630626916885	1698
0.631329774857	1700
0.632042884827	1701
0.632999897003	1704
0.633386850357	1703
0.634141921997	1705
0.634735822678	1705
0.635473966599	1706
0.636458873749	1706
0.636805772781	1704
0.637655973434	1703
0.638358831406	1701
0.639303922653	1701
0.639712810516	1701
0.64044380188	1701
0.641367912292	1701
0.641728878021	1700
0.642761945724	1697
0.643219947815	1695
0.644122838974	1692
0.644585847855	1691
0.645593881607	1688
0.646691799164	1685
0.646791934967	1684
0.647398948669	1685
0.648451805115	1686
0.648811817169	1688
0.64954996109	1688
0.650236845016	1689
0.650956869125	1690
0.651901960373	1691
0.652310848236	1691
0.653049945831	1692
0.654031991959	1692
0.65514087677	1692
0.655241966248	1693
0.656105995178	1694
0.656548976898	1697
0.657285928726	1699
0.657948970795	1700
0.658649921417	1700
0.659315824509	1699
0.66005897522	1697
0.66098690033	1697
0.661443948746	1695
0.662410974503	1692
0.66280579567	1690
0.66358590126	1688
0.66454076767	1687
0.664915800095	1688
0.665694952011	1688
0.666636943817	1687
0.667049884796	1687
0.667788982391	1686
0.668474912643	1686
0.669104814529	1687
0.669888973236	1688
0.670580863953	1688
0.671285867691	1689
0.671979904175	1692
0.672686815262	1695
0.67338681221	1698
0.674113988876	1703
0.674825906754	1704
0.675504922867	1707
0.676466941833	1706
0.677565813065	1705
0.677665948868	1705
0.678279876709	1705
0.679322957993	1703
0.679600954056	1701
0.680694818497	1700
0.681804895401	1701
0.681905984879	1703
0.682798862457	1705
0.683242797852	1706
0.683980941772	1705
0.68465089798	1706
0.685362815857	1705
0.686039924622	1705
0.686999797821	1705
0.687418937683	1710
0.688381910324	1705
0.688806772232	1706
0.689797878265	1710
0.69025683403	1713
0.691257953644	1713
0.691604852676	1713
0.692328929901	1711
0.693302869797	1708
0.693681001663	1707
0.694552898407	1702
0.695420980453	1698
0.696530818939	1694
0.696630954742	1691
0.697529792786	1691
0.697933912277	1690
0.698673963547	1691
0.699621915817	1692
0.700055837631	1692
0.70078587532	1690
0.701745986938	1689
0.702229976654	1688
0.702881813049	1688
0.703591823578	1686
0.704289913177	1686
0.704979896545	1686
0.705940961838	1689
0.707070827484	1692
0.70720076561	1698
0.707761764526	1700
0.708718776703	1701
0.709209918976	1703
0.709868907928	1704
0.710579872131	1703
0.711298942566	1701
0.711945772171	1697
0.71271777153	1693
0.713687896729	1689
0.714091777802	1685
0.715073823929	1684
0.715488910675	1685
0.716268777847	1677
0.717116832733	1673
0.717590808868	1670
0.718325853348	1667
0.719038963318	1665
0.71972489357	1661
0.72069978714	1657
0.72101688385	1654
0.722101926804	1651
0.723247766495	1651
0.723347902298	1650
0.72391295433	1652
0.72486782074	1650
0.725312948227	1651
0.726291894913	1650
0.726699829102	1649
0.727445840836	1647
0.728161811829	1647
0.728824853897	1645
0.729541778564	1645
0.730523824692	1645
0.731648921967	1645
0.731749773026	1647
0.73236489296	1648
0.733089923859	1650
0.734019994736	1649
0.734437942505	1651
0.735164880753	1652
0.735831975937	1649
0.736574888229	1653
0.737278938293	1652
0.737968921661	1652
0.738651990891	1653
0.739374876022	1655
0.7400867939	1658
0.740811824799	1660
0.741675853729	1661
0.74215388298	1661
0.743119955063	1660
0.743507862091	1661
0.744355916977	1660
0.744983911514	1660
0.745673894882	1659
0.746630907059	1659
0.747069835663	1661
0.748045921326	1665
0.748449802399	1669
0.749255895615	1672
0.75014591217	1674
0.750547885895	1676
0.751302957535	1676
0.75226187706	1678
0.752665996552	1677
0.75340294838	1678
0.75409579277	1676
0.754802942276	1674
0.75550699234	1675
0.756251811981	1677
0.756933927536	1676
0.757634878159	1676
0.758331775665	1674
0.759017944336	1672
0.75997376442	1668
0.760395765305	1664
0.761125802994	1661
0.76208281517	1654
0.76248884201	1651
0.763249874115	1644
0.763950824738	1641
0.764980792999	1640
0.765358924866	1639
0.766363859177	1637
0.766763925552	1636
0.767763853073	1635
0.768134832382	1634
0.768888950348	1633
0.769837856293	1635
0.770210981369	1635
0.77126789093	1637
0.772329807281	1637
0.772429943085	1642
0.773041963577	1646
0.773697853088	1650
0.774450778961	1653
0.775251865387	1655
0.775872945786	1657
0.776573896408	1657
0.777526855469	1658
0.777982950211	1658
0.778679847717	1656
0.779373884201	1654
0.780312776566	1652
0.780731916428	1650
0.781473875046	1650
0.782249927521	1648
0.782862901688	1646
0.78382396698	1644
0.784246921539	1641
0.784985780716	1638
0.785695791245	1637
0.786650896072	1633
0.787053823471	1631
0.788047790527	1628
0.788464784622	1627
0.789248943329	1628
0.790139913559	1631
0.790543794632	1632
0.791320800781	1632
0.792257785797	1630
0.79337477684	1633
0.793474912643	1633
0.79411482811	1633
0.795043945312	1632
0.795451879501	1632
0.796471834183	1631
0.797596931458	1630
0.797697782516	1632
0.798316955566	1636
0.799030780792	1637
0.799965858459	1640
0.801069974899	1640
0.801170825958	1640
0.801774978638	1642
0.802524805069	1644
0.803168773651	1645
0.80389380455	1648
0.804639816284	1648
0.805604934692	1653
0.806008815765	1660
0.806715965271	1667
0.807695865631	1673
0.808106899261	1676
0.808841943741	1673
0.809814929962	1668
0.810973882675	1657
0.811074972153	1640
0.811667919159	1621
0.812367916107	1596
0.813090801239	1568
0.813790798187	1540
0.814492940903	1511
0.815262794495	1482
0.815886974335	1451
0.81659078598	1421
0.817547798157	1389
0.817958831787	1356
0.818678855896	1323
0.819640874863	1289
0.820044994354	1255
0.820793867111	1217
0.821741819382	1179
0.822275876999	1142
0.82289481163	1106
0.823633909225	1071
0.824327945709	1037
0.82501077652	1003
0.825967788696	974
0.827254772186	951
0.82735490799	931
0.827455997467	912
0.828470945358	896
0.828571796417	876
0.829685926437	865
0.829786777496	854
0.830574989319	845
0.831497907639	840
0.831598997116	835
0.83243894577	824
0.833430767059	810
0.833530902863	795
0.834235906601	774
0.835237979889	750
0.835338830948	724
0.836365938187	689
0.836466789246	654
0.837622880936	611
0.837723970413	567
0.838847875595	523
0.838948965073	480
0.84007191658	440
0.840173959732	403
0.840909957886	370
0.841909885406	341
0.842010974884	328
0.84313082695	318
0.843230962753	321
0.844524860382	334
0.844624996185	355
0.845591783524	388
0.845691919327	433
0.846788883209	491
0.846889972687	559
0.848013877869	636
0.848114967346	722
0.849262952805	815
0.849363803864	917
0.850460767746	1029
0.850800991058	1159
0.85152387619	1299
0.8524518013	1442
0.852866888046	1587
0.853893995285	1735
0.854319810867	1890
0.855023860931	2045
0.855959892273	2195
0.856401920319	2335
0.857447862625	2455
0.858561992645	2549
0.858662843704	2620
0.859536886215	2661
0.859922885895	2675
0.860638856888	2663
0.861354827881	2625
0.862266778946	2564
0.862687826157	2486
0.863709926605	2391
0.864144802094	2291
0.864826917648	2185
0.865550994873	2076
0.866447925568	1969
0.866909980774	1865
0.867892980576	1771
0.869001865387	1684
0.86910200119	1612
0.870018959045	1551
0.870405912399	1503
0.871158838272	1469
0.871864795685	1450
0.872808933258	1442
0.873237848282	1449
0.873959779739	1460
0.874656915665	1479
0.875363826752	1501
0.876316785812	1524
0.876727819443	1551
0.877567768097	1578
0.878486871719	1601
0.878908872604	1622
0.879660844803	1640
0.880361795425	1656
0.881047964096	1671
0.88173699379	1681
0.882702827454	1688
0.883098840714	1690
0.883835792542	1692
0.884544849396	1688
0.885493993759	1684
0.885896921158	1677
0.886896848679	1671
0.888007879257	1662
0.88812494278	1652
0.888742923737	1646
0.889471769333	1640
0.890446901321	1636
0.89083981514	1632
0.891592979431	1628
0.89230298996	1625
0.89292383194	1622
0.893984794617	1621
0.894365787506	1619
0.895091772079	1618
0.895790815353	1617
0.896722793579	1617
0.897170782089	1619
0.897890806198	1624
0.898616790771	1629
0.899312973022	1633
0.899969816208	1636
0.900708913803	1638
0.90171790123	1641
0.90207195282	1642
0.90306687355	1644
0.903481960297	1644
0.904184818268	1643
0.904911994934	1643
0.905847787857	1644
0.90628194809	1644
0.907307863235	1644
0.908353805542	1644
0.90845489502	1640
0.909074783325	1636
0.909833908081	1634
0.910734891891	1629
0.911229848862	1627
0.911927938461	1623
0.91287279129	1619
0.913302898407	1615
0.91402888298	1613
0.914734840393	1614
0.915435791016	1615
0.916153907776	1615
0.916842937469	1616
0.917568922043	1616
0.918511867523	1616
0.918922901154	1616
0.919865846634	1616
0.920235872269	1615
0.920972824097	1614
0.921701908112	1614
0.922397851944	1615
0.923114776611	1616
0.923762798309	1617
0.924699783325	1617
0.925268888474	1615
0.926010847092	1614
0.926708936691	1612
0.927362918854	1611
0.92810177803	1608
0.929071903229	1606
0.929453849792	1602
0.930183887482	1600
0.93088889122	1599
0.931588888168	1599
0.932315826416	1600
0.933324813843	1600
0.93367099762	1597
0.934389829636	1596
0.935055971146	1595
0.935761928558	1595
0.936716794968	1594
0.937138795853	1593
0.937810897827	1592
0.938751935959	1591
0.939168930054	1592
0.939884901047	1594
0.940591812134	1594
0.941631793976	1593
0.942037820816	1592
0.943098783493	1592
0.943507909775	1589
0.944275856018	1588
0.944993972778	1585
0.94567489624	1583
0.946608781815	1580
0.947024822235	1577
0.947776794434	1578
0.948432922363	1579
0.949137926102	1579
0.949862957001	1578
0.950558900833	1578
0.951340913773	1576
0.951971769333	1577
0.952662944794	1576
0.953355789185	1576
0.954348802567	1573
0.954733848572	1572
0.955430984497	1573
0.95609498024	1575
0.957139968872	1578
0.957519769669	1577
0.958538770676	1579
0.958938837051	1576
0.959667921066	1575
0.960598945618	1574
0.961016893387	1569
0.961730957031	1565
0.962485790253	1560
0.963199853897	1556
0.963847875595	1553
0.964882850647	1551
0.965320825577	1550
0.966017961502	1548
0.966977834702	1546
0.967394828796	1544
0.96814084053	1542
0.969120979309	1541
0.970192909241	1538
0.970295906067	1536
0.970929861069	1532
0.971615791321	1530
0.972341775894	1530
0.973346948624	1532
0.973705768585	1534
0.974441766739	1537
0.975140810013	1537
0.975844860077	1536
0.976793766022	1534
0.977909803391	1533
0.978009939194	1531
0.97863483429	1527
0.979344844818	1525
0.98003077507	1522
0.98074388504	1520
0.981475830078	1521
0.982418775558	1520
0.982835769653	1517
0.983564853668	1518
0.984513998032	1516
0.984979867935	1514
0.985639810562	1511
0.98655295372	1510
0.987726926804	1506
0.987827777863	1502
0.98845076561	1498
0.989137887955	1496
0.989856958389	1495
0.990551948547	1494
0.991532802582	1490
0.991934776306	1486
0.992673873901	1482
0.993364810944	1478
0.993997812271	1474
0.994758844376	1469
0.995458841324	1464
0.996382951736	1460
0.996819972992	1455
0.997805833817	1453
0.998266935349	1454
0.9989798069	1453
0.99965596199	1451
1.00061178207	1447
1.00104379654	1446
1.00178694725	1447
1.00273394585	1445
1.0031349659	1444
1.0038819313	1442
1.00458598137	1440
1.00553894043	1438
1.00592589378	1438
1.00666379929	1439
1.00736379623	1438
1.0081319809	1437
1.0090918541	1435
1.00943994522	1431
1.0102159977	1427
1.01118397713	1424
1.01228690147	1421
1.01238799095	1416
1.01332998276	1412
1.01367092133	1408
1.01442599297	1409
1.01511979103	1407
1.01581788063	1406
1.01649594307	1405
1.0174498558	1404
1.01792597771	1400
1.01865196228	1399
1.01933193207	1399
1.02002096176	1397
1.0207297802	1397
1.02168989182	1395
1.02280187607	1395
1.02290296555	1397
1.02376580238	1400
1.02427983284	1403
1.02492499352	1403
1.02563691139	1401
1.02632784843	1400
1.02699279785	1400
1.02805185318	1397
1.02839994431	1395
1.02914381027	1391
1.02988290787	1390
1.03079676628	1390
1.0313038826	1389
1.03197693825	1392
1.03295183182	1392
1.03336381912	1392
1.0343439579	1389
1.03474783897	1389
1.03548884392	1389
1.03640294075	1388
1.03685498238	1387
1.03761577606	1386
1.03853297234	1388
1.03896188736	1391
1.03998279572	1395
1.04040193558	1400
1.04130887985	1402
1.04179596901	1403
1.0425298214	1405
1.04321885109	1404
1.04417896271	1404
1.04460787773	1403
1.04554891586	1403
1.04594779015	1399
1.04695987701	1398
1.04733991623	1399
1.04836082458	1400
1.04876184464	1403
1.04978299141	1403
1.05018591881	1405
1.05092692375	1406
1.05160999298	1407
1.0523557663	1408
1.05332183838	1410
1.05366683006	1411
1.05443286896	1412
1.05514788628	1413
1.05582380295	1416
1.05680179596	1421
1.05729198456	1424
1.05791187286	1427
1.05890083313	1430
1.0593059063	1432
1.06001996994	1434
1.06070899963	1437
1.06144785881	1440
1.06214499474	1441
1.06307578087	1443
1.06350278854	1447
1.06432700157	1451
1.06499886513	1457
1.06592798233	1463
1.0670568943	1467
1.06715798378	1474
1.06802678108	1480
1.0684709549	1486
1.06913495064	1493
1.06989693642	1499
1.07085585594	1506
1.07197093964	1511
1.0720717907	1518
1.07292485237	1529
1.07334184647	1538
1.07435083389	1546
1.07473278046	1553
1.07548594475	1559
1.07616877556	1565
1.07692599297	1569
1.07757687569	1573
1.07835078239	1576
1.07896590233	1577
1.07967281342	1579
1.08032679558	1580
1.08140087128	1584
1.08245396614	1589
1.0825548172	1592
1.08346676826	1597
1.0838778019	1602
1.08463287354	1605
1.08532977104	1610
1.08635187149	1617
1.08665180206	1621
1.08769798279	1627
1.08882594109	1632
1.08892989159	1640
1.08952593803	1649
1.09023785591	1657
1.09118580818	1665
1.09159684181	1672
1.09234595299	1677
1.09305095673	1684
1.09368896484	1687
1.09445786476	1690
1.09513783455	1692
1.0958609581	1694
1.09678387642	1695
1.09790897369	1697
1.09800982475	1701
1.09889578819	1706
1.09931492805	1708
1.10040783882	1712
1.10071897507	1714
1.10145783424	1717
1.10243797302	1719
1.10284399986	1722
1.10358285904	1723
1.10433697701	1723
1.10517096519	1725
1.10563993454	1728
1.10636281967	1732
1.10706877708	1736
1.10776090622	1738
1.10846590996	1739
1.1094288826	1739
1.10981678963	1739
1.11051988602	1740
1.11125683784	1739
1.11226177216	1739
1.11265993118	1737
1.11341881752	1736
1.11407995224	1737
1.1148109436	1739
1.11576890945	1739
1.11618876457	1741
1.11714076996	1742
1.11756682396	1743
1.11833095551	1745
1.1193318367	1748
1.12048482895	1749
1.12061691284	1749
1.12111783028	1749
1.12183094025	1749
1.12253379822	1753
1.12347698212	1757
1.12388896942	1760
1.12462496758	1761
1.12534379959	1762
1.12603187561	1763
1.12693881989	1762
1.12732887268	1763
1.12813878059	1762
1.12883996964	1761
1.1295208931	1760
1.13050794601	1761
1.13091897964	1762
1.13165092468	1763
1.13260579109	1766
1.13302087784	1765
1.13375282288	1765
1.13470578194	1764
1.13511586189	1765
1.1358537674	1764
1.13655185699	1763
1.13751196861	1762
1.13793778419	1761
1.13866376877	1759
1.13935399055	1760
1.14006781578	1762
1.14103388786	1762
1.14208292961	1761
1.14218378067	1761
1.14287686348	1760
1.14382386208	1758
1.14427089691	1757
1.1452319622	1755
1.1456348896	1752
1.14636588097	1750
1.1473197937	1748
1.1477458477	1749
1.14848780632	1750
1.14915180206	1752
1.15017580986	1753
1.15058493614	1754
1.1513338089	1756
1.15200781822	1758
1.15270781517	1761
1.15366387367	1764
1.15408086777	1764
1.15481185913	1766
1.15551781654	1769
1.15622782707	1772
1.15712976456	1775
1.15757393837	1777
1.15834093094	1777
1.15902280807	1777
1.15976691246	1776
1.16044282913	1776
1.16112995148	1774
1.16184186935	1772
1.1627869606	1768
1.16319894791	1765
1.16394591331	1763
1.16489386559	1762
1.16530394554	1761
1.16606378555	1761
1.16701793671	1757
1.16740584373	1756
1.16842198372	1754
1.16879892349	1754
1.16954493523	1752
1.17051792145	1750
1.1709318161	1749
1.17163395882	1751
1.17254090309	1751
1.17303299904	1752
1.17377686501	1754
1.17471885681	1756
1.17515182495	1756
1.17587900162	1754
1.17683577538	1754
1.17727088928	1753
1.17817997932	1753
1.17863988876	1750
1.17963480949	1747
1.18004179001	1745
1.18078780174	1745
1.18151593208	1747
1.18216085434	1749
1.18315076828	1747
1.18355989456	1748
1.18453884125	1748
1.18498086929	1748
1.18596076965	1747
1.1870598793	1748
1.18716096878	1747
1.18807482719	1746
1.18847584724	1746
1.18946790695	1747
1.18988585472	1750
1.19054579735	1751
1.19133591652	1752
1.1923148632	1751
1.19265699387	1749
1.19366979599	1749
1.19407296181	1747
1.19480895996	1745
1.19551491737	1742
1.19650292397	1739
1.19690895081	1737
1.19761776924	1737
1.19859790802	1736
1.19900488853	1736
1.19999480247	1737
1.20038795471	1736
1.20141482353	1735
1.20245885849	1736
1.20255899429	1735
1.20320177078	1734
1.20420885086	1732
1.20532679558	1731
1.20542693138	1732
1.20606088638	1733
1.20674276352	1734
1.20744085312	1736
1.20815086365	1736
1.20883584023	1734
1.20955586433	1738
1.21050095558	1736
1.21087789536	1735
1.2116317749	1734
1.21236491203	1732
1.21332192421	1730
1.21375894547	1729
1.2147359848	1730
1.21514797211	1730
1.21589493752	1733
1.21683979034	1732
1.21730899811	1732
1.21800589561	1732
1.21891689301	1731
1.21936392784	1730
1.22031998634	1730
1.2207429409	1727
1.2217438221	1726
1.22214579582	1725
1.22288680077	1728
1.22361683846	1729
1.22433185577	1729
1.2250289917	1731
1.22571182251	1728
1.2264149189	1725
1.22736692429	1724
1.22777891159	1721
1.22869896889	1721
1.22906684875	1717
1.23016881943	1715
1.23057794571	1713
1.23126292229	1714
1.23202681541	1715
1.23270797729	1715
1.23363399506	1715
1.23401379585	1714
1.23482489586	1714
1.23577690125	1713
1.23618793488	1714
1.23713994026	1712
1.23759579659	1713
1.23835587502	1713
1.23932790756	1715
1.24041199684	1718
1.24054384232	1720
1.24113988876	1721
1.24210882187	1722
1.24248981476	1720
1.24346590042	1720
1.24391198158	1718
1.24464082718	1716
1.24536085129	1712
1.24634289742	1708
1.2467148304	1706
1.24745988846	1705
1.24815297127	1706
1.24885582924	1708
1.24956178665	1708
1.25031089783	1708
1.25122880936	1708
1.25235390663	1708
1.25246882439	1708
1.25309896469	1709
1.25378799438	1708
1.25474190712	1708
1.25513887405	1706
1.25588297844	1708
1.25655198097	1709
1.25734782219	1710
1.25798487663	1710
1.25866794586	1708
1.25959277153	1706
1.26004481316	1705
1.26078677177	1702
1.26140093803	1701
1.26236486435	1699
1.26285099983	1696
1.26374077797	1695
1.26414084435	1697
1.26486897469	1697
1.26593399048	1700
1.26640295982	1700
1.26712393761	1702
1.26806497574	1702
1.26849794388	1703
1.26923084259	1703
1.2699508667	1703
1.27091598511	1704
1.27210879326	1703
1.27221393585	1703
1.27276086807	1705
1.27346587181	1705
1.27415394783	1707
1.27486896515	1705
1.27581691742	1702
1.27622890472	1700
1.27714586258	1697
1.27761697769	1695
1.27829194069	1693
1.27933096886	1691
1.27971482277	1688
1.28071379662	1686
1.28103280067	1688
1.28200888634	1689
1.28252387047	1691
1.28325200081	1692
1.28421378136	1693
1.28462481499	1692
1.28561496735	1693
1.28601789474	1693
1.28675794601	1694
1.28773498535	1693
1.2888507843	1694
1.28897976875	1695
1.28983688354	1698
1.29030394554	1702
1.29099988937	1703
1.29171395302	1704
1.29264688492	1704
1.29305386543	1703
1.29379177094	1704
1.29444384575	1703
1.29515695572	1700
1.29616093636	1698
1.29658079147	1694
1.29758691788	1692
1.2986998558	1692
1.29880285263	1691
1.29968690872	1690
1.30007791519	1689
1.30083084106	1688
1.30153679848	1688
1.30223989487	1686
1.30316996574	1685
1.30357384682	1682
1.30432796478	1681
1.30506396294	1680
1.30571389198	1680
1.30641388893	1683
1.3074119091	1684
1.30778479576	1684
1.3085258007	1685
1.30924487114	1685
1.30992984772	1685
1.31061196327	1684
1.31134581566	1683
1.31203985214	1681
1.31302881241	1679
1.3134059906	1677
1.3141708374	1677
1.31509780884	1680
1.31550192833	1681
1.31652092934	1682
1.31692576408	1683
1.31791591644	1684
1.31831288338	1685
1.31903386116	1687
1.31975388527	1688
1.32045388222	1688
1.32139897346	1687
1.32181692123	1687
1.32255387306	1689
1.32333278656	1692
1.32423090935	1693
1.32463979721	1693
1.32559800148	1691
1.32674884796	1690
1.32684898376	1688
1.32775092125	1685
1.32817196846	1683
1.32891178131	1680
1.32960796356	1678
1.33056688309	1675
1.33096981049	1674
1.33169579506	1675
1.33239984512	1676
1.33311295509	1675
1.33408093452	1676
1.33447194099	1676
1.33520698547	1677
1.33590388298	1678
1.33660697937	1680
1.33756995201	1680
1.33797979355	1681
1.33897280693	1682
1.33938884735	1684
1.34009480476	1688
1.34080290794	1690
1.34150791168	1692
1.34222078323	1692
1.34316897392	1691
1.34352684021	1691
1.34426689148	1688
1.34535098076	1687
1.34568095207	1683
1.34644198418	1681
1.34740781784	1680
1.34780693054	1680
1.34878778458	1682
1.34917783737	1682
1.35020899773	1682
1.35062098503	1683
1.35134482384	1684
1.35234379768	1684
1.35272693634	1684
1.35343980789	1683
1.35415577888	1684
1.35512185097	1684
1.35548996925	1683
1.35622096062	1687
1.35713291168	1689
1.35760593414	1690
1.35836386681	1691
1.35904693604	1689
1.36001682281	1689
1.36041998863	1689
1.36110687256	1687
1.36214780807	1685
1.3625638485	1685
1.36355280876	1682
1.36397099495	1681
1.36469078064	1683
1.36537480354	1685
1.36632180214	1687
1.36743998528	1687
1.36754798889	1688
1.36816883087	1688
1.36883187294	1689
1.36984395981	1689
1.37019395828	1688
1.37100291252	1690
1.37170982361	1691
1.37266397476	1692
1.37307786942	1695
1.37408399582	1698
1.3745059967	1699
1.37548398972	1701
1.3759059906	1700
1.37663197517	1701
1.37736177444	1700
1.37803792953	1698
1.37897086143	1697
1.37938785553	1695
1.38012886047	1694
1.3808259964	1694
1.38151788712	1696
1.38249897957	1699
1.38290190697	1700
1.38364696503	1702
1.38461279869	1704
1.38572192192	1703
1.38582277298	1706
1.38639092445	1706
1.38730478287	1707
1.38854384422	1707
1.38870286942	1709
1.38918185234	1712
1.39020895958	1714
1.39130997658	1718
1.39142584801	1719
1.39234781265	1718
1.39272594452	1717
1.39345979691	1715
1.39415788651	1712
1.39504885674	1708
1.39633393288	1705
1.39643597603	1699
1.39718198776	1694
1.3976547718	1693
1.39841985703	1693
1.39936280251	1692
1.39974999428	1690
1.40075087547	1690
1.40103697777	1688
1.40191578865	1689
1.4028608799	1687
1.40331578255	1686
1.40399694443	1685
1.40471196175	1685
1.40540599823	1685
1.40636491776	1687
1.4067568779	1690
1.40773892403	1691
1.4081659317	1693
1.40915679932	1694
1.40954899788	1694
1.4103448391	1694
1.410987854	1694
1.41169691086	1691
1.41238999367	1686
1.4131269455	1682
1.41404485703	1680
1.41516399384	1677
1.41526889801	1675
1.41608691216	1674
1.41644978523	1670
1.41753196716	1668
1.4179058075	1664
1.41872787476	1663
1.4196767807	1662
1.42008185387	1659
1.42108392715	1657
1.42149376869	1653
1.42248797417	1653
1.42289280891	1652
1.42388796806	1652
1.42500281334	1649
1.42510986328	1648
1.42571496964	1645
1.42661881447	1646
1.42707395554	1643
1.42812776566	1642
1.42850184441	1641
1.42953181267	1640
1.42993497849	1640
1.43066978455	1639
1.4316239357	1642
1.43201088905	1645
1.43305587769	1647
1.4334218502	1646
1.43418478966	1646
1.435120821	1647
1.43554282188	1648
1.43654489517	1649
1.43698787689	1649
1.43769884109	1650
1.43839979172	1651
1.43908691406	1654
1.43979883194	1657
1.44070386887	1660
1.44105195999	1662
1.4418759346	1661
1.44282579422	1662
1.44328379631	1660
1.44424200058	1660
1.44534277916	1658
1.4454498291	1655
1.44634985924	1652
1.44746398926	1650
1.44756889343	1651
1.44837093353	1653
1.44870877266	1653
1.44985389709	1655
1.45028185844	1653
1.45103788376	1655
1.45197176933	1653
1.45310592651	1652
1.45320677757	1651
1.45380187035	1651
1.45473098755	1648
1.45514583588	1647
1.45589089394	1647
1.45659089088	1648
1.45757079124	1649
1.45797991753	1649
1.45870995522	1648
1.45966887474	1645
1.46006584167	1644
1.4610388279	1641
1.46144580841	1637
1.46243977547	1634
1.46283984184	1631
1.46360683441	1628
1.46434497833	1627
1.46504998207	1626
1.4659948349	1627
1.4671189785	1626
1.46724891663	1625
1.46810984612	1625
1.46850895882	1625
1.46918082237	1625
1.47011184692	1625
1.47061395645	1625
1.47160077095	1625
1.47192597389	1628
1.47296476364	1632
1.47341680527	1636
1.4741089344	1639
1.47511577606	1641
1.47552990913	1643
1.47631382942	1643
1.47698497772	1642
1.47791385651	1640
1.47831296921	1638
1.47904992104	1634
1.47970986366	1629
1.48043990135	1626
1.48112678528	1625
1.48189783096	1625
1.48258090019	1623
1.48334789276	1622
1.48401284218	1620
1.48472690582	1617
1.48542284966	1614
1.48611092567	1615
1.48681783676	1615
1.48777198792	1612
1.48816990852	1612
1.48892593384	1612
1.48963880539	1613
1.49058294296	1617
1.49164295197	1618
1.49174380302	1619
1.49241781235	1619
1.49312996864	1619
1.49411177635	1618
1.49450588226	1617
1.49539685249	1615
1.49591898918	1611
1.4968957901	1611
1.4973089695	1610
1.49834895134	1613
1.49941587448	1614
1.49951696396	1616
1.50036478043	1617
1.50081777573	1618
1.50179982185	1620
1.50223278999	1622
1.5029258728	1626
1.50365185738	1629
1.50461578369	1634
1.50503897667	1639
1.50599789619	1646
1.50641179085	1655
1.50718998909	1661
1.50807499886	1664
1.50849080086	1661
1.5092728138	1653
1.50990390778	1643
1.51090788841	1626
1.51130700111	1604
1.51207280159	1577
1.51278376579	1548
1.51348185539	1516
1.5144329071	1485
1.51485085487	1454
1.51557683945	1420
1.51632881165	1387
1.51701998711	1351
1.51795887947	1315
1.51834893227	1278
1.51911187172	1240
1.51975393295	1201
1.52078700066	1160
1.52118778229	1120
1.52192187309	1080
1.52261185646	1048
1.52357196808	1015
1.52459597588	988
1.52469682693	968
1.52556777	949
1.52566790581	931
1.52669787407	916
1.52682495117	906
1.5280687809	895
1.5281689167	885
1.5291929245	880
1.52929377556	877
1.53044986725	877
1.5305519104	878
1.53164887428	878
1.53174996376	875
1.53285288811	868
1.5329618454	857
1.53409481049	840
1.53419494629	818
1.53534078598	791
1.53544092178	760
1.53652787209	724
1.53662896156	684
1.53772997856	641
1.53783082962	602
1.53895688057	562
1.53905797005	528
1.54015779495	497
1.54028487206	471
1.541410923	451
1.54151177406	437
1.54264187813	430
1.54274296761	431
1.54387187958	441
1.54401898384	462
1.54507398605	492
1.54517579079	535
1.54597377777	585
1.54682183266	640
1.54692196846	705
1.54773378372	778
1.54864478111	858
1.54874491692	941
1.54962396622	1037
1.55058693886	1149
1.55101799965	1268
1.55173897743	1394
1.55247092247	1526
1.55312180519	1667
1.55385994911	1814
1.5548157692	1960
1.55523896217	2104
1.55588793755	2240
1.55658483505	2358
1.55729579926	2453
1.55830979347	2523
1.55940699577	2566
1.55950784683	2582
1.56014990807	2572
1.56110978127	2538
1.56227684021	2482
1.56237697601	2409
1.56295394897	2323
1.56366682053	2223
1.56461381912	2122
1.56573295593	2016
1.56583380699	1912
1.56646084785	1812
1.56740999222	1717
1.56782484055	1634
1.56856393814	1562
1.56931996346	1501
1.57029294968	1455
1.57062578201	1421
1.57158589363	1401
1.57202291489	1391
1.57279896736	1393
1.57381176949	1404
1.57417297363	1421
1.57492995262	1441
1.57587599754	1463
1.57633399963	1487
1.57739686966	1512
1.57833695412	1536
1.57843780518	1558
1.57907986641	1578
1.57973694801	1594
1.58051991463	1612
1.58146977425	1627
1.58187580109	1638
1.58259487152	1648
1.58331394196	1653
1.58431696892	1654
1.58465695381	1653
1.58566689491	1651
1.58607983589	1647
1.58704590797	1638
1.58746695518	1632
1.58844685555	1623
1.58888888359	1616
1.58960580826	1610
1.59063887596	1605
1.59103083611	1600
1.59175992012	1594
1.59247779846	1589
1.59316086769	1585
1.5941388607	1580
1.59454488754	1578
1.59534597397	1575
1.59624886513	1572
1.59664297104	1572
1.59737992287	1572
1.59809184074	1574
1.5988008976	1578
1.59950685501	1582
1.60045599937	1584
1.60157489777	1587
1.60167789459	1588
1.60230898857	1591
1.60320186615	1593
1.60437989235	1594
1.60449290276	1594
1.60512685776	1595
1.60580778122	1596
1.60675978661	1599
1.60714197159	1601
1.60817980766	1601
1.60931992531	1600
1.60942387581	1600
1.61001086235	1597
1.61090993881	1594
1.61139988899	1591
1.61238288879	1587
1.61277890205	1582
1.61353087425	1579
1.61417889595	1577
1.6149289608	1574
1.61587977409	1574
1.61629486084	1571
1.61735582352	1568
1.61769580841	1567
1.61844182014	1566
1.61939787865	1564
1.61974978447	1563
1.62076997757	1560
1.6211938858	1558
1.6219689846	1557
1.62266087532	1559
1.62336182594	1560
1.6240298748	1562
1.62503600121	1563
1.62543177605	1563
1.62618279457	1562
1.62688183784	1561
1.62757897377	1562
1.62852597237	1561
1.62892198563	1558
1.62968492508	1558
1.63038277626	1557
1.63135886192	1557
1.63172888756	1559
1.63271284103	1559
1.63302493095	1558
1.6341137886	1557
1.63451695442	1556
1.63536190987	1555
1.63623094559	1555
1.63665485382	1554
1.63766384125	1552
1.63806200027	1551
1.63880395889	1551
1.63950395584	1551
1.64017081261	1553
1.64114999771	1556
1.64155483246	1554
1.64254593849	1553
1.64294576645	1550
1.6437227726	1549
1.64438080788	1546
1.64506196976	1544
1.64580893517	1539
1.64676785469	1536
1.64789295197	1533
1.64799499512	1533
1.64886188507	1533
1.64997982979	1536
1.65008091927	1534
1.6507229805	1533
1.65167379379	1531
1.65208697319	1532
1.65309691429	1532
1.65349197388	1531
1.65451097488	1529
1.65491390228	1529
1.65566086769	1529
1.6563308239	1532
1.65734195709	1532
1.65843391418	1531
1.65857291222	1530
1.65915489197	1528
1.65985894203	1528
1.66054177284	1526
1.66124796867	1524
1.6619617939	1521
1.66285586357	1517
1.66333794594	1514
1.66425895691	1513
1.66463088989	1513
1.6654548645	1514
1.66617584229	1514
1.66680979729	1514
1.66752481461	1512
1.6682498455	1512
1.66914081573	1510
1.66965484619	1509
1.67038583755	1508
1.67109680176	1506
1.67198395729	1502
1.67236185074	1501
1.67345499992	1501
1.673858881	1501
1.67484283447	1499
1.67528891563	1497
1.67624092102	1495
1.6766037941	1492
1.67733287811	1489
1.67827486992	1484
1.67869997025	1481
1.67941999435	1477
1.68012499809	1472
1.6811029911	1470
1.68149089813	1468
1.68252182007	1467
1.68292999268	1466
1.68367886543	1463
1.68461489677	1458
1.68501281738	1460
1.68576979637	1458
1.68672299385	1456
1.68782997131	1454
1.68794298172	1451
1.68856287003	1448
1.68930792809	1448
1.6899728775	1446
1.6909198761	1444
1.69133591652	1442
1.69208598137	1438
1.69279098511	1436
1.69349479675	1431
1.69445085526	1427
1.69479393959	1421
1.69559288025	1416
1.69628381729	1411
1.69727778435	1407
1.69752693176	1405
1.69839692116	1403
1.69911193848	1402
1.70006895065	1399
1.70045685768	1396
1.70112895966	1395
1.7021780014	1393
1.70255899429	1391
1.7033188343	1389
1.7042798996	1387
1.70461177826	1384
1.7054169178	1384
1.70611286163	1384
1.7068169117	1384
1.70776891708	1384
1.7082388401	1383
1.70914387703	1381
1.70959496498	1379
1.71034479141	1376
1.71101999283	1372
1.71174192429	1368
1.7123939991	1364
1.71310186386	1360
1.71410179138	1358
1.71450996399	1356
1.71529579163	1357
1.71593594551	1356
1.71664476395	1354
1.71733999252	1351
1.71806097031	1351
1.71874284744	1348
1.71944785118	1346
1.72041797638	1345
1.72083377838	1342
1.7215628624	1341
1.72227978706	1341
1.72320580482	1343
1.72432780266	1346
1.72444581985	1347
1.72504377365	1345
1.72574687004	1345
1.72670483589	1344
1.72713184357	1341
1.72792577744	1339
1.72857999802	1338
1.72954583168	1333
1.72995185852	1332
1.73094797134	1331
1.731361866	1332
1.73206877708	1333
1.73280191422	1333
1.73374199867	1335
1.73415493965	1334
1.73515081406	1333
1.7355659008	1335
1.73629689217	1334
1.7370159626	1334
1.73770594597	1334
1.73842597008	1334
1.73937177658	1336
1.73978185654	1338
1.74052381516	1340
1.74147295952	1342
1.7425839901	1341
1.7426970005	1340
1.74323582649	1339
1.74396395683	1338
1.74470877647	1336
1.74541282654	1335
1.74613690376	1335
1.74682092667	1334
1.7475438118	1337
1.74849081039	1340
1.74888896942	1346
1.74963879585	1346
1.75059390068	1349
1.75102496147	1351
1.75199079514	1353
1.75240492821	1357
1.75312590599	1358
1.75408792496	1359
1.75450992584	1361
1.7552947998	1365
1.75621080399	1369
1.75655889511	1375
1.75757789612	1379
1.75797796249	1383
1.75905799866	1386
1.75943279266	1388
1.7600748539	1391
1.76079082489	1393
1.76182889938	1396
1.76218080521	1396
1.76293897629	1398
1.76366686821	1401
1.76460385323	1406
1.76508688927	1411
1.76604485512	1417
1.76639986038	1422
1.76745486259	1425
1.76854085922	1432
1.76864099503	1438
1.76930189133	1444
1.77001190186	1452
1.77096295357	1456
1.77135896683	1463
1.7720849514	1469
1.77278995514	1480
1.77348995209	1489
1.77445697784	1496
1.77488088608	1504
1.77559781075	1509
1.77656388283	1514
1.77695584297	1520
1.77772688866	1525
1.77866387367	1529
1.77907681465	1533
1.77981686592	1536
1.78076791763	1542
1.78126597404	1548
1.78192877769	1555
1.7826128006	1561
1.78356981277	1565
1.78399777412	1572
1.78472590446	1577
1.78568291664	1583
1.78608894348	1589
1.78682398796	1594
1.78750777245	1598
1.78849697113	1603
1.7896437645	1609
1.7897439003	1617
1.79033589363	1624
1.79104590416	1630
1.7917277813	1635
1.79242396355	1640
1.79314184189	1644
1.79409694672	1648
1.79454493523	1652
1.79530096054	1655
1.79596996307	1656
1.79661083221	1658
1.79740381241	1662
1.7980568409	1666
1.79876995087	1670
1.79972290993	1674
1.80011796951	1675
1.80112695694	1677
1.80152797699	1678
1.80229091644	1681
1.8029859066	1682
1.80392289162	1684
1.8043448925	1684
1.80533194542	1685
1.80573177338	1688
1.80647778511	1692
1.80709981918	1695
1.80788683891	1698
1.8088259697	1701
1.80924296379	1702
1.80992078781	1703
1.81062793732	1704
1.81158280373	1704
1.81203889847	1705
1.81280899048	1705
1.81352186203	1706
1.81427693367	1709
1.81489777565	1713
1.81560182571	1716
1.81655597687	1718
1.81693577766	1719
1.81796383858	1722
1.81834697723	1723
1.81911993027	1725
1.81979799271	1727
1.82084584236	1728
1.82126283646	1727
1.8219268322	1728
1.82285690308	1730
1.82330489159	1732
1.8240249157	1732
1.82472896576	1731
1.8256919384	1729
1.82608985901	1727
1.8271009922	1725
1.82821893692	1722
1.82831978798	1718
1.82896399498	1715
1.82964682579	1711
1.83062291145	1708
1.8310239315	1707
1.83177185059	1709
1.83272099495	1710
1.83302497864	1710
1.83386087418	1710
1.83482480049	1710
1.8352599144	1710
1.83595895767	1710
1.8368999958	1709
1.83733892441	1709
1.83831787109	1708
1.838752985	1709
1.83946084976	1713
1.84018182755	1716
1.84085988998	1719
1.84160494804	1720
1.84230279922	1722
1.8429877758	1721
1.84368896484	1722
1.84465289116	1722
1.84500479698	1722
1.84580278397	1721
1.84650492668	1719
1.84719586372	1719
1.84789991379	1721
1.84860777855	1723
1.84930181503	1722
1.85028100014	1722
1.85063385963	1721
1.85136890411	1720
1.85237884521	1720
1.85278582573	1718
1.853525877	1716
1.85447192192	1713
1.85554599762	1711
1.85564684868	1708
1.85630083084	1710
1.85703492165	1710
1.8577299118	1709
1.85870289803	1707
1.85910487175	1705
1.85986399651	1702
1.86049199104	1701
1.86150383949	1698
1.86190676689	1695
1.86287283897	1691
1.86330485344	1689
1.86404085159	1688
1.86499094963	1687
1.86541390419	1689
1.86616277695	1690
1.86686587334	1691
1.86781477928	1690
1.86825299263	1693
1.86895298958	1695
1.86966776848	1696
1.87036180496	1698
1.87132096291	1698
1.87243700027	1700
1.87253785133	1703
1.87314581871	1707
1.87386584282	1710
1.87487697601	1711
1.87531876564	1710
1.87604284286	1710
1.87672781944	1709
1.8774228096	1708
1.87814593315	1704
1.87883281708	1700
1.87954378128	1697
1.88044881821	1694
1.88083386421	1695
1.88156986237	1697
1.88257098198	1700
1.8830268383	1702
1.88379192352	1704
1.8847219944	1706
1.88500189781	1708
1.88581180573	1708
1.88656187057	1710
1.88728284836	1709
1.88796877861	1709
1.88893389702	1709
1.88935494423	1710
1.89036679268	1710
1.89076781273	1712
1.8914809227	1711
1.89241480827	1708
1.89284491539	1706
1.89362287521	1702
1.89450097084	1700
1.8948738575	1696
1.89594388008	1692
1.89633393288	1689
1.89709496498	1688
1.89779090881	1689
1.89849281311	1692
1.89918398857	1693
1.8998978138	1695
1.90084695816	1697
1.90195989609	1698
1.90207386017	1700
1.90269589424	1703
1.9036397934	1703
1.90476083755	1703
1.90487480164	1703
1.90551590919	1705
1.906208992	1708
1.90717291832	1708
1.90758991241	1709
1.90828490257	1708
1.90903377533	1706
1.90996599197	1704
1.9103808403	1700
1.91133880615	1696
1.91165781021	1691
1.91235589981	1686
1.91324591637	1680
1.91417098045	1677
1.91452980042	1674
1.91528081894	1674
1.91587686539	1673
1.91662096977	1673
1.91743898392	1673
1.91812682152	1673
1.91884279251	1677
1.91973590851	1678
1.92013382912	1681
1.92096281052	1680
1.92189383507	1681
1.92301177979	1683
1.92312788963	1688
1.92373991013	1691
1.92446279526	1693
1.9251639843	1692
1.92587184906	1691
1.92653393745	1689
1.92728590965	1687
1.92822480202	1685
1.92936396599	1682
1.92946481705	1679
1.93007588387	1678
1.93081879616	1676
1.93151879311	1677
1.9324529171	1677
1.93287587166	1679
1.93359398842	1678
1.93455576897	1679
1.93493700027	1678
1.93566393852	1676
1.93662190437	1676
1.93704295158	1674
1.93803977966	1672
1.93838191032	1671
1.93937683105	1670
1.9404528141	1673
1.94055390358	1673
1.94137883186	1672
1.94202399254	1673
1.94271993637	1670
1.94341492653	1669
1.94412493706	1667
1.94507288933	1666
1.94544291496	1663
1.94643783569	1659
1.94692587852	1658
1.94761681557	1658
1.94856381416	1658
1.94898676872	1658
1.94971489906	1659
1.95043897629	1658
1.95139479637	1657
1.9525039196	1658
1.95261788368	1658
1.95349478722	1659
1.95390295982	1658
1.95489382744	1658
1.95530581474	1660
1.95606088638	1662
1.95700979233	1666
1.95740199089	1668
1.9581348896	1667
1.95883584023	1670
1.95953583717	1668
1.96028900146	1668
1.96118497849	1667
1.96229791641	1665
1.96239876747	1662
1.96308779716	1658
1.96403694153	1655
1.9644677639	1657
1.96520996094	1656
1.96588897705	1658
1.96659088135	1658
1.96736478806	1658
1.96800994873	1657
1.96895480156	1659
1.96935486794	1660
1.97011184692	1658
1.97081494331	1659
1.97151494026	1658
1.97221088409	1660
1.97291398048	1661
1.97383594513	1664
1.97430491447	1662
1.97521686554	1665
1.97559380531	1663
1.97633576393	1663
1.97712683678	1661
1.97778987885	1659
1.97849297523	1657
1.97947478294	1656
1.98058199883	1654
1.9806997776	1655
1.98155498505	1656
1.98198199272	1656
1.98271989822	1656
1.98366498947	1655
1.98407697678	1657
1.98481678963	1655
1.98576688766	1656
1.98618078232	1657
1.98717284203	1656
1.98759293556	1655
1.98859095573	1657
1.98965477943	1659
1.98975586891	1662
1.99039578438	1666
1.99101281166	1670
1.99203681946	1669
1.99238991737	1670
1.99322080612	1668
1.99391579628	1669
1.99461197853	1667
1.9953057766	1667
1.99604177475	1664
1.99698185921	1661
1.99737596512	1661
1.99838590622	1661
1.99880599976	1662
1.99953389168	1661
2.00043296814	1661
2.00166678429	1661
2.00177288055	1660
2.00238895416	1660
2.0033698082	1659
2.00373697281	1658
2.00450897217	1657
2.00520777702	1657
2.00584983826	1659
2.00655388832	1660
2.00755381584	1662
2.00791788101	1662
2.00898981094	1662
2.01008486748	1661
2.01018595695	1661
2.01076388359	1660
2.01152396202	1658
2.01218891144	1656
2.01290082932	1652
2.01362085342	1647
2.01435995102	1643
2.01526880264	1640
2.01567196846	1638
2.01639199257	1633
2.01709294319	1630
2.01781988144	1626
2.01852488518	1624
2.01921391487	1624
2.01992082596	1623
2.02062296867	1622
2.02134799957	1624
2.02201581001	1626
2.02272891998	1629
2.02343893051	1634
2.02407383919	1637
2.02508378029	1639
2.02548480034	1641
2.02624392509	1642
2.02692890167	1643
2.02789783478	1643
2.02831196785	1644
2.02935290337	1641
2.02970290184	1638
2.0304517746	1638
2.03113698959	1640
2.03185892105	1638
2.03278279305	1638
2.03313779831	1638
2.03420186043	1637
2.03459596634	1638
2.03562283516	1637
2.03600692749	1637
2.03676891327	1635
2.03765678406	1635
2.03806877136	1636
2.03912186623	1634
2.03953194618	1637
2.04022598267	1639
2.04100680351	1641
2.04192185402	1641
2.04233288765	1642
2.04333281517	1641
2.04371380806	1641
2.04445290565	1641
2.04544377327	1641
2.04581999779	1639
2.04662394524	1638
2.04735183716	1638
2.04827594757	1640
2.04865884781	1640
2.04966688156	1643
2.05005693436	1643
2.05080890656	1644
2.05176377296	1644
2.05219697952	1644
2.05292391777	1644
2.05361890793	1644
2.05436491966	1642
2.05528092384	1641
2.05643582344	1644
2.05655694008	1643
2.05713891983	1650
2.05784893036	1652
2.05879282951	1653
2.05921196938	1655
2.05995297432	1656
2.06089377403	1656
2.06133079529	1656
2.0620598793	1654
2.06301498413	1651
2.06338691711	1651
2.0641438961	1651
2.06513690948	1652
2.06549191475	1654
2.06652092934	1653
2.06691479683	1653
2.06766986847	1652
2.06834578514	1651
2.06906199455	1651
2.06970882416	1649
2.07045984268	1648
2.07116580009	1646
2.07185482979	1645
2.07252788544	1645
2.07321476936	1647
2.07416391373	1649
2.07535195351	1649
2.07546186447	1648
2.0760819912	1648
2.07678699493	1647
2.07744383812	1648
2.07844376564	1646
2.07883691788	1646
2.07981276512	1645
2.08032488823	1646
2.08120799065	1650
2.08236980438	1653
2.08249497414	1657
2.08309578896	1659
2.0840549469	1660
2.08514595032	1663
2.08527183533	1665
2.08590483665	1667
2.08660888672	1669
2.08755779266	1670
2.08793997765	1669
2.08870792389	1672
2.08943080902	1672
2.09038496017	1676
2.09075880051	1676
2.09179878235	1675
2.09219193459	1674
2.09293293953	1670
2.09363698959	1669
2.09437680244	1667
2.09538698196	1664
2.0956788063	1661
2.09646582603	1659
2.0971558094	1656
2.09784388542	1654
2.09853792191	1652
2.09925794601	1650
2.10016679764	1649
2.10054588318	1647
2.10136890411	1645
2.1023979187	1643
2.10271382332	1642
2.10371685028	1640
2.10415387154	1638
2.10511183739	1636
2.1055328846	1638
2.10628390312	1640
2.10696792603	1641
2.10764098167	1642
2.10859584808	1643
2.10905194283	1641
2.11001086235	1643
2.11035084724	1641
2.11113476753	1641
2.11186099052	1640
2.11281085014	1638
2.11392593384	1637
2.11403989792	1637
2.1149148941	1639
2.1153588295	1639
2.11629796028	1639
2.11744689941	1637
2.11757278442	1636
2.11843681335	1635
2.11879587173	1633
2.11953186989	1631
2.12029695511	1629
2.12099289894	1628
2.1219599247	1625
2.12237691879	1625
2.12311887741	1627
2.12401390076	1628
2.12445497513	1626
2.12546992302	1625
2.12585282326	1624
2.12686181068	1621
2.12732696533	1618
2.12801480293	1614
2.12872982025	1610
2.12943696976	1605
2.13009285927	1602
2.13079595566	1599
2.13179588318	1600
2.13291192055	1600
2.13305687904	1598
2.1336388588	1598
2.13436985016	1598
2.13534092903	1599
2.13566088676	1599
2.1364338398	1602
2.13739395142	1602
2.13775777817	1604
2.13853788376	1605
2.13949084282	1608
2.13989377022	1611
2.14064478874	1614
2.14159488678	1616
2.14270877838	1617
2.14280986786	1619
2.14344882965	1619
2.14434695244	1619
2.14478778839	1619
2.14556384087	1618
2.14652776718	1617
2.14765191078	1617
2.14775586128	1617
2.14838790894	1618
2.14937090874	1618
2.14972686768	1618
2.15047979355	1619
2.15116477013	1618
2.15188193321	1619
2.15258979797	1621
2.15326285362	1621
2.15391182899	1620
2.1546318531	1621
2.15533089638	1621
2.15630793571	1623
2.15670585632	1625
2.15747380257	1627
2.15843391418	1628
2.15884590149	1627
2.15983891487	1626
2.16092681885	1625
2.16105985641	1622
2.16191792488	1619
2.16303682327	1615
2.16314792633	1610
2.1640458107	1608
2.16444087029	1607
2.1651828289	1605
2.16616296768	1605
2.16661787033	1604
2.16755700111	1603
2.16795682907	1601
2.16872477531	1601
2.16966295242	1598
2.17082977295	1598
2.17098379135	1598
2.1715118885	1597
2.17252397537	1598
2.17292976379	1600
2.17366790771	1602
2.17439579964	1603
2.17505788803	1604
2.17577195168	1604
2.17647576332	1605
2.1773879528	1603
2.17777895927	1602
2.17878484726	1601
2.17920589447	1599
2.1800057888	1597
2.18070077896	1597
2.1813647747	1598
2.18208098412	1599
2.18276190758	1598
2.18374180794	1598
2.18413686752	1598
2.18488693237	1598
2.18558478355	1598
2.18627595901	1599
2.18698692322	1598
2.18794178963	1598
2.18834090233	1598
2.18911790848	1598
2.18978095055	1601
2.19047784805	1601
2.19123077393	1602
2.19190478325	1602
2.19256496429	1600
2.19333386421	1598
2.19403576851	1596
2.19475293159	1594
2.19569182396	1591
2.19604897499	1588
2.19684886932	1588
2.19754481316	1586
2.1982448101	1589
2.19895291328	1590
2.19965076447	1592
2.20037794113	1594
2.20105290413	1594
2.20174479485	1596
2.20242595673	1597
2.20314383507	1598
2.20385885239	1600
2.20453691483	1601
2.20548796654	1602
2.20591592789	1604
2.20665097237	1609
2.20736789703	1612
2.20828199387	1615
2.20940899849	1617
2.20951676369	1618
2.21012282372	1621
2.21082496643	1623
2.21182990074	1624
2.2121989727	1626
2.21316790581	1627
2.21358680725	1626
2.21437287331	1626
2.21507382393	1621
2.21602892876	1614
2.21643781662	1600
2.21716499329	1582
2.21787977219	1560
2.21857881546	1534
2.21953582764	1505
2.21996092796	1473
2.22065782547	1439
2.22138285637	1405
2.22233390808	1369
2.22274780273	1333
2.22366881371	1299
2.22409081459	1262
2.22485494614	1223
2.22585582733	1180
2.22632694244	1136
2.22700381279	1092
2.22768998146	1048
2.22866177559	1004
2.22985386848	963
2.22995495796	929
2.23091888428	900
2.23101997375	873
2.23189377785	853
2.23199391365	834
2.23309898376	818
2.2332098484	805
2.23434376717	797
2.23444390297	791
2.2355427742	789
2.23564291	791
2.23672986031	796
2.23682999611	804
2.23796796799	811
2.23806881905	815
2.23919296265	818
2.23929381371	818
2.24040794373	816
2.24050879478	807
2.2416408062	793
2.241740942	774
2.24285578728	751
2.24295592308	724
2.24406981468	693
2.24416995049	662
2.24535298347	629
2.24545383453	599
2.24650382996	570
2.24660396576	546
2.24773383141	526
2.24783396721	515
2.24896883965	509
2.24906897545	512
2.25014591217	522
2.25024700165	541
2.25140190125	571
2.2515308857	611
2.25263476372	661
2.25273489952	720
2.25385284424	783
2.25395298004	854
2.25500178337	930
2.25510191917	1013
2.25638079643	1123
2.25667095184	1239
2.2577059269	1356
2.25813984871	1477
2.25884985924	1602
2.25956988335	1729
2.26048779488	1856
2.26173782349	1982
2.26184797287	2107
2.262362957	2219
2.26306581497	2321
2.26402783394	2405
2.26444888115	2467
2.26515579224	2511
2.2659008503	2529
2.26683688164	2524
2.26721286774	2498
2.26824784279	2453
2.2686548233	2393
2.26964092255	2319
2.27005982399	2235
2.27078986168	2143
2.27147579193	2045
2.27214789391	1951
2.27288889885	1862
2.27355790138	1777
2.27435779572	1698
2.27499985695	1625
2.27569890022	1566
2.27665781975	1516
2.27698898315	1476
2.277810812	1448
2.27872991562	1428
2.27915883064	1417
2.27990198135	1413
2.28085589409	1416
2.28132081032	1425
2.28199291229	1439
2.28270077705	1455
2.28365588188	1470
2.28405499458	1488
2.28507590294	1505
2.28543281555	1523
2.28639292717	1541
2.28686189651	1556
2.28764295578	1571
2.28828287125	1583
2.28917384148	1594
2.2903637886	1605
2.29046487808	1615
2.29134392738	1619
2.29175376892	1621
2.29250597954	1621
2.2934088707	1621
2.29381990433	1617
2.29488182068	1613
2.29602789879	1607
2.29612994194	1601
2.29675388336	1595
2.2974588871	1590
2.29815483093	1587
2.29885983467	1584
2.29955983162	1579
2.30050396919	1577
2.30091381073	1573
2.30190396309	1571
2.30231785774	1569
2.30334496498	1568
2.30442285538	1565
2.30452489853	1564
2.30519080162	1564
2.30588698387	1565
2.30657196045	1568
2.3073527813	1570
2.30813980103	1572
2.30854296684	1573
2.3096408844	1574
2.31004190445	1575
2.31078696251	1575
2.31173181534	1574
2.31213188171	1574
2.31288385391	1573
2.31383681297	1573
2.31504797935	1574
2.31514883041	1576
2.315710783	1575
2.31634283066	1575
2.31709098816	1574
2.31806588173	1571
2.31917691231	1568
2.31927776337	1567
2.31990790367	1563
2.32083082199	1560
2.3213288784	1556
2.32228589058	1553
2.32267189026	1553
2.32365489006	1552
2.3240749836	1552
2.32483696938	1551
2.32578682899	1549
2.32620382309	1546
2.32706785202	1545
2.32754087448	1542
2.32859182358	1539
2.32896280289	1534
2.3299767971	1531
2.33038687706	1528
2.33114886284	1527
2.33182787895	1527
2.33252096176	1525
2.3331758976	1524
2.33393597603	1523
2.33465695381	1522
2.33534598351	1521
2.33635497093	1521
2.3374209404	1519
2.33752298355	1520
2.33840680122	1518
2.33960199356	1518
2.33970284462	1521
2.34026384354	1524
2.34097886086	1527
2.34165787697	1527
2.34263396263	1527
2.34383296967	1527
2.3439347744	1526
2.34446597099	1525
2.34515285492	1523
2.34614181519	1521
2.34655690193	1517
2.3472328186	1515
2.34798789024	1515
2.34893083572	1514
2.34936380386	1514
2.35009098053	1513
2.35076880455	1512
2.35147190094	1511
2.35219788551	1511
2.35289883614	1510
2.3538479805	1509
2.35430884361	1507
2.35524892807	1508
2.35566496849	1507
2.35639381409	1508
2.35732579231	1510
2.35772395134	1510
2.35846590996	1509
2.35916686058	1507
2.36012482643	1506
2.36049485207	1504
2.361358881	1501
2.36202096939	1497
2.36273193359	1495
2.36343288422	1493
2.36438679695	1492
2.36478495598	1493
2.36578679085	1493
2.36618995667	1495
2.36692690849	1493
2.36762690544	1492
2.36835384369	1493
2.36930394173	1494
2.37044978142	1493
2.37055897713	1493
2.37117481232	1490
2.37209677696	1492
2.37251996994	1493
2.37317895889	1494
2.37389993668	1495
2.37462091446	1493
2.37531590462	1493
2.37601089478	1490
2.37698984146	1487
2.37742495537	1485
2.3781619072	1480
2.37884998322	1476
2.3795068264	1472
2.38030481339	1468
2.38100481033	1466
2.38188695908	1466
2.38236784935	1464
2.38310098648	1460
2.3837518692	1459
2.38448190689	1457
2.38512086868	1454
2.38590693474	1452
2.38660097122	1450
2.38755679131	1447
2.38798284531	1446
2.38874077797	1444
2.3896548748	1443
2.39004182816	1443
2.39104580879	1442
2.39214897156	1441
2.39228987694	1438
2.39290189743	1434
2.39359784126	1432
2.39425897598	1428
2.39495396614	1423
2.39588785172	1419
2.39633584023	1415
2.3970887661	1411
2.39775586128	1410
2.39872288704	1410
2.39913082123	1409
2.40012693405	1405
2.40053582191	1403
2.4013428688	1400
2.4022359848	1397
2.40269899368	1395
2.40339994431	1392
2.40440297127	1390
2.40550279617	1388
2.40560483932	1391
2.40622591972	1390
2.40697383881	1390
2.40763783455	1391
2.40857982635	1389
2.40969896317	1387
2.40980195999	1387
2.41048598289	1384
2.41114783287	1380
2.41206789017	1377
2.4133207798	1376
2.41342377663	1371
2.41392683983	1368
2.41484498978	1369
2.41529393196	1367
2.4159758091	1368
2.41678595543	1366
2.41775584221	1365
2.41815495491	1363
2.4188349247	1361
2.41976690292	1360
2.42021584511	1356
2.42097377777	1354
2.42193579674	1351
2.42237186432	1349
2.42330789566	1348
2.42372989655	1349
2.42470288277	1347
2.4250099659	1345
2.42621183395	1342
2.42639994621	1338
2.42733979225	1336
2.42795586586	1333
2.4290099144	1330
2.42942094803	1326
2.43018293381	1324
2.43110585213	1325
2.43209481239	1326
2.4321949482	1326
2.43293499947	1325
2.43360686302	1326
2.43432283401	1326
2.43516278267	1326
2.4355340004	1326
2.43655085564	1327
2.43698596954	1325
2.43796396255	1325
2.438382864	1325
2.43908882141	1326
2.43979597092	1329
2.44074988365	1333
2.44196391106	1331
2.44207382202	1332
2.44266676903	1331
2.44334578514	1331
2.44431185722	1330
2.44471096992	1329
2.44554686546	1330
2.44629192352	1328
2.44728183746	1327
2.44764995575	1328
2.4486579895	1329
2.44905877113	1332
2.45007395744	1334
2.45118880272	1335
2.45131492615	1336
2.45188593864	1339
2.45262289047	1340
2.45333480835	1341
2.45400977135	1342
2.45472884178	1344
2.45543885231	1346
2.45613288879	1350
2.45719099045	1354
2.45740389824	1357
2.45824384689	1360
2.45918989182	1361
2.45958590508	1363
2.460313797	1363
2.46106696129	1364
2.46173477173	1365
2.46243000031	1364
2.46340990067	1364
2.46375989914	1365
2.46480083466	1368
2.46512794495	1373
2.46594381332	1375
2.46689081192	1378
2.46731090546	1382
2.46804881096	1384
2.46873497963	1388
2.46968793869	1393
2.47074699402	1396
2.4709379673	1402
2.47176599503	1407
2.47216892242	1413
2.47302985191	1422
2.47390294075	1430
2.47432494164	1439
2.47531700134	1447
2.47570180893	1453
2.47646784782	1459
2.47740578651	1465
2.47771382332	1469
2.47856998444	1473
2.47926878929	1474
2.47991991043	1475
2.48090481758	1477
2.4812579155	1480
2.48249483109	1483
2.48270082474	1486
2.48374986649	1488
2.4840259552	1492
2.48489785194	1494
2.48578691483	1497
2.48620200157	1503
2.48693680763	1505
2.48765993118	1511
2.48857188225	1516
2.48962783813	1523
2.48972797394	1533
2.4904718399	1542
2.49110984802	1550
2.49206995964	1557
2.49248480797	1565
2.49314594269	1570
2.49416995049	1577
2.494535923	1582
2.49554681778	1587
2.49593281746	1591
2.49670290947	1596
2.49739980698	1601
2.49833798409	1609
2.49946594238	1614
2.49961495399	1618
2.50026679039	1623
2.50111079216	1627
2.50226187706	1632
2.50237798691	1635
2.50298094749	1639
2.5036649704	1641
2.5043759346	1643
2.50507879257	1648
2.50602483749	1654
2.50642299652	1658
2.50720477104	1663
2.5078728199	1666
2.50855398178	1669
2.50953793526	1672
2.50993680954	1672
2.51094388962	1673
2.51136279106	1672
2.51207995415	1673
2.51278090477	1671
2.51348400116	1670
2.51443696022	1672
2.51485896111	1674
2.51554179192	1678
2.51630592346	1679
2.51720881462	1682
2.51852989197	1683
2.51863098145	1687
2.51946687698	1689
2.5198237896	1692
2.52062988281	1694
2.52124476433	1695
2.52202177048	1697
2.5228729248	1700
2.52324676514	1701
2.52438282967	1705
2.52474498749	1705
2.52556180954	1705
2.5264248848	1704
2.52693891525	1702
2.52748084068	1702
2.52820181847	1700
2.52924990654	1699
2.53032493591	1696
2.53042578697	1695
2.53102684021	1698
2.53171992302	1700
2.53244686127	1701
2.53314685822	1704
2.5340988636	1705
2.53451681137	1707
2.53549480438	1707
2.53661584854	1708
2.53671598434	1710
2.53735089302	1710
2.53805494308	1711
2.53877282143	1712
2.53946590424	1715
2.54042387009	1718
2.54086089134	1718
2.54202890396	1718
2.54227185249	1719
2.54336690903	1719
2.54370880127	1718
2.54473185539	1715
2.54500699043	1714
2.54591393471	1711
2.54661679268	1708
2.54736280441	1707
2.54798078537	1706
2.54874277115	1707
2.54927182198	1707
2.55010390282	1705
2.55084776878	1703
2.55154490471	1702
2.5524969101	1701
2.55281496048	1699
2.55348277092	1697
2.55435180664	1695
2.5550429821	1696
2.55573296547	1695
2.55642795563	1696
2.55714178085	1697
2.55798077583	1696
2.55909085274	1695
2.55919098854	1694
2.5598089695	1692
2.56055784225	1691
2.56125497818	1688
2.56227183342	1686
2.56259083748	1683
2.56326580048	1683
2.56443691254	1683
2.56556987762	1684
2.5656709671	1686
2.56634092331	1688
2.56695699692	1688
2.56752181053	1689
2.56835484505	1690
2.56895589828	1690
2.56989598274	1690
2.57040977478	1692
2.57138085365	1691
2.57180094719	1692
2.57277798653	1695
2.57383298874	1697
2.5739338398	1699
2.57464385033	1700
2.57552886009	1700
2.57638096809	1699
2.57674980164	1698
2.57774782181	1696
2.57818579674	1692
2.57916784286	1689
2.57958579063	1686
2.58052182198	1682
2.58101296425	1681
2.58170390129	1680
2.58264183998	1680
2.58306980133	1679
2.58381795883	1677
2.5844669342	1675
2.585490942	1674
2.58589887619	1675
2.58663892746	1677
2.58728694916	1676
2.58793187141	1678
2.58886194229	1681
2.58939290047	1687
2.59014987946	1690
2.59084486961	1693
2.59146499634	1696
2.5923538208	1697
2.5928709507	1697
2.59363389015	1695
2.59433794022	1695
2.59496188164	1694
2.59569978714	1690
2.59632778168	1687
2.59713292122	1685
2.59812378883	1684
2.59852790833	1685
2.59927892685	1684
2.60024285316	1684
2.60063195229	1681
2.60174798965	1680
2.60280394554	1678
2.60293698311	1677
2.60354185104	1676
2.60422086716	1675
2.60495996475	1674
2.60589981079	1675
2.60623884201	1679
2.60708999634	1681
2.60766792297	1685
2.60840797424	1685
2.60915279388	1686
2.6098139286	1686
2.61049294472	1686
2.6111998558	1686
2.61217284203	1685
2.61254882812	1682
2.61337089539	1681
2.61425995827	1681
2.61464691162	1681
2.61563587189	1682
2.61607098579	1681
2.61710596085	1681
2.61745691299	1678
2.61846494675	1676
2.6188659668	1675
2.61961579323	1672
2.62037396431	1671
2.62124300003	1669
2.62166595459	1667
2.62243700027	1667
2.62312579155	1667
2.62380194664	1668
2.62476086617	1667
2.62507891655	1665
2.62584686279	1663
2.62656784058	1662
2.6275229454	1659
2.62790679932	1656
2.62891697884	1655
2.62933588028	1651
2.6300637722	1651
2.63075089455	1652
2.63170695305	1655
2.63210296631	1657
2.63291883469	1658
2.63362383842	1660
2.634349823	1659
2.6350069046	1664
2.63570785522	1665
2.63643479347	1665
2.637362957	1665
2.63778591156	1664
2.6385037899	1666
2.63939595222	1667
2.64049696922	1671
2.64059782028	1673
2.64127087593	1675
2.64217185974	1675
2.64262294769	1673
2.64327979088	1671
2.64394879341	1670
2.64467597008	1669
2.6454668045	1664
2.64622282982	1659
2.64683198929	1657
2.64748191833	1657
2.64820599556	1656
2.64889788628	1655
2.64985990524	1655
2.6509809494	1654
2.65108180046	1654
2.65195584297	1654
2.65238881111	1655
2.6532189846	1655
2.65417194366	1656
2.65457582474	1655
2.65557193756	1656
2.65609693527	1659
2.65680599213	1661
2.65733599663	1664
2.65807986259	1664
2.65890288353	1664
2.65963077545	1663
2.66036176682	1663
2.66107296944	1660
2.66160678864	1657
2.66254281998	1652
2.66299295425	1651
2.66396689415	1650
2.66439795494	1648
2.66512393951	1650
2.66606879234	1649
2.66649580002	1650
2.66721796989	1649
2.66793990135	1649
2.66903591156	1650
2.6693239212	1651
2.67040896416	1653
2.67069888115	1651
2.67156481743	1651
2.67256593704	1653
2.67299294472	1655
2.6737279892	1657
2.67468285561	1660
2.67506098747	1661
2.67607593536	1661
2.67641878128	1660
2.67723679543	1661
2.67791581154	1658
2.67883491516	1656
2.67935085297	1653
2.68001389503	1650
2.68072390556	1650
2.68172383308	1649
2.68188786507	1649
2.68275880814	1648
2.68352079391	1647
2.68423199654	1646
2.68491697311	1646
2.68565988541	1646
2.68658185005	1646
2.68696093559	1646
2.68774485588	1646
2.6884598732	1646
2.68915987015	1650
2.69008994102	1653
2.69049191475	1655
2.69153690338	1658
2.69188499451	1658
2.69267082214	1656
2.69357180595	1655
2.69399094582	1655
2.69497179985	1653
2.69536590576	1650
2.69613790512	1647
2.69683980942	1647
2.6977918148	1643
2.69818091393	1644
2.69895482063	1645
2.69969177246	1643
2.70036292076	1644
2.7010538578	1643
2.7017519474	1643
2.70250177383	1643
2.70347189903	1644
2.7038128376	1643
2.70459699631	1642
2.70529699326	1642
2.70609378815	1644
2.70704984665	1646
2.70718693733	1649
2.70811486244	1649
2.70879983902	1648
2.70945477486	1648
2.71021080017	1649
2.71093082428	1649
2.71161484718	1648
2.71233081818	1647
2.71304488182	1646
2.71378493309	1646
2.7147769928	1648
2.71512889862	1649
2.71611499786	1649
2.71647191048	1649
2.71723389626	1649
2.71791791916	1648
2.71857881546	1648
2.7193748951	1648
2.72001481056	1647
2.72102379799	1645
2.72139382362	1644
2.72219777107	1644
2.72288489342	1646
2.72384190559	1649
2.72421097755	1650
2.72523784637	1650
2.7255988121	1650
2.72643399239	1649
2.72704577446	1649
2.72800087929	1648
2.7283987999	1647
2.72914385796	1645
2.72985196114	1644
2.7305688858	1645
2.73126482964	1645
2.7319278717	1648
2.73296999931	1649
2.73336195946	1650
2.73408484459	1650
2.73479700089	1650
2.73588490486	1651
2.73613095284	1651
2.7369158268	1653
2.73785281181	1654
2.73889279366	1654
2.73902583122	1656
2.7399058342	1659
2.74040579796	1663
2.74111485481	1666
2.74179887772	1666
2.74273586273	1666
2.74307084084	1667
2.7441239357	1666
2.74456882477	1664
2.74516177177	1663
2.74601697922	1660
2.74671387672	1658
2.74737596512	1657
2.74815392494	1658
2.74917387962	1658
2.74932289124	1658
2.75042581558	1658
2.75079798698	1655
2.75158786774	1653
2.75244092941	1651
2.75324296951	1650
2.75371289253	1648
2.75448298454	1645
2.75546383858	1644
2.75562286377	1644
2.75676989555	1647
2.75792598724	1648
2.75805878639	1648
2.75866889954	1650
2.75962996483	1651
2.75998783112	1652
2.76107692719	1652
2.76139497757	1653
2.7621588707	1655
2.76311588287	1653
2.76347088814	1655
2.76428389549	1657
2.76519799232	1662
2.76639795303	1667
2.76653289795	1670
2.76707577705	1673
2.76807880402	1676
2.76829791069	1678
2.76949691772	1680
2.76965689659	1681
2.77058887482	1682
2.77128696442	1681
2.77186799049	1681
2.77286696434	1683
2.7739739418	1687
2.77410888672	1687
2.77481985092	1688
2.77552080154	1686
2.77622580528	1683
2.77691793442	1681
2.77761483192	1678
2.77854681015	1675
2.77962684631	1671
2.77975988388	1666
2.78063988686	1664
2.78105783463	1665
2.78186488152	1664
2.78279876709	1663
2.78319382668	1663
2.78391981125	1661
2.78489494324	1661
2.78524184227	1658
2.78606677055	1660
2.78675293922	1657
2.7874147892	1658
2.78814888	1658
2.78914093971	1661
2.78945493698	1664
2.79024386406	1669
2.79094982147	1674
2.7916469574	1677
2.79260182381	1680
2.79296684265	1682
2.79375576973	1683
2.79463076591	1683
2.79509782791	1682
2.79577684402	1681
2.79653286934	1680
2.79732680321	1680
2.79798984528	1680
2.79898881912	1679
2.80006098747	1678
2.80019283295	1675
2.80080294609	1671
2.8017539978	1667
2.80285787582	1662
2.80299091339	1658
2.80355787277	1651
2.80427598953	1644
2.80519986153	1639
2.80558586121	1633
2.80644893646	1629
2.80725288391	1626
2.80843377113	1624
2.80858588219	1620
2.80947089195	1616
2.80967497826	1614
2.81052494049	1611
2.81123781204	1610
2.8119328022	1609
2.81269598007	1606
2.81337189674	1605
2.81409478188	1606
2.81479382515	1608
2.81549882889	1612
2.81619882584	1614
2.81720495224	1616
2.81825184822	1619
2.81838679314	1622
2.81899690628	1623
2.81987690926	1625
2.82034778595	1627
2.82107686996	1629
2.82178878784	1630
2.82249093056	1632
2.82343387604	1634
2.82385396957	1637
2.82483696938	1638
2.82527089119	1637
2.82599377632	1636
2.82695889473	1635
2.82737088203	1633
2.82807993889	1631
2.82907581329	1628
2.8294467926	1627
2.83058381081	1625
2.83076786995	1626
2.83161187172	1628
2.83258295059	1630
2.83297085762	1630
2.83371591568	1630
2.83467698097	1631
2.83509683609	1631
2.83610081673	1630
2.83645582199	1629
2.83719587326	1627
2.83790278435	1627
2.83890485764	1626
2.83935880661	1627
2.84004187584	1629
2.84071588516	1631
2.84137392044	1630
2.84208297729	1629
2.84303689003	1628
2.84346699715	1625
2.84449696541	1622
2.84481287003	1620
2.84562897682	1616
2.84643292427	1614
2.84708499908	1612
2.84782385826	1614
2.84843587875	1614
2.84938979149	1615
2.84977793694	1614
2.85052585602	1615
2.85124993324	1615
2.8519308567	1617
2.85288190842	1618
2.85330080986	1617
2.85403585434	1618
2.8550028801	1618
2.85541987419	1619
2.8563978672	1622
2.85680484772	1624
2.85754084587	1626
2.85829782486	1627
2.85925483704	1627
2.85966396332	1625
2.86038184166	1625
2.86113786697	1622
2.86206078529	1619
2.86246681213	1614
2.86321878433	1611
2.86417293549	1607
2.86458182335	1605
2.86521792412	1604
2.86603689194	1602
2.86694192886	1600
2.86738491058	1597
2.86813688278	1596
2.86882376671	1595
2.86978077888	1594
2.87016987801	1593
2.87092399597	1593
2.87161183357	1593
2.87255096436	1594
2.87290096283	1598
2.87371397018	1602
2.87447190285	1605
2.87509799004	1606
2.87582182884	1608
2.87653183937	1608
2.87750482559	1608
2.87859892845	1609
2.87871980667	1608
2.87956786156	1608
2.8800008297	1607
2.88069581985	1607
2.88139891624	1608
2.88216996193	1608
2.88286495209	1610
2.88382482529	1608
2.88496279716	1607
2.8851017952	1607
2.88568782806	1607
2.88640999794	1610
2.88732290268	1611
2.88769698143	1613
2.88847494125	1618
2.88917088509	1624
2.8901309967	1630
2.89048480988	1633
2.89129281044	1632
2.89197778702	1627
2.89297580719	1617
2.89334487915	1602
2.89407587051	1582
2.89504694939	1558
2.895403862	1528
2.89642381668	1498
2.89684081078	1464
2.89760184288	1433
2.8983259201	1400
2.89898681641	1364
2.89998197556	1328
2.90033578873	1291
2.90140199661	1252
2.90169978142	1211
2.90250492096	1169
2.90343499184	1124
2.90386295319	1079
2.90455698967	1035
2.90558099747	990
2.90672183037	957
2.90682983398	926
2.90793180466	898
2.90803980827	870
2.90910577774	846
2.90921592712	825
2.91032385826	806
2.91043186188	790
2.91129279137	778
2.9114677906	767
2.91240096092	761
2.91250181198	759
2.91359782219	760
2.91369795799	765
2.91481590271	771
2.91491699219	776
2.91603899002	779
2.91613984108	777
2.91722989082	773
2.9173309803	763
2.91846489906	749
2.91856598854	730
2.91962885857	706
2.91972899437	680
2.92090892792	651
2.92103695869	619
2.92214798927	589
2.92224884033	562
2.92337393761	539
2.92347478867	519
2.92455983162	501
2.92465996742	493
2.92579293251	491
2.92589378357	497
2.92669391632	513
2.92757487297	540
2.92772889137	579
2.92882800102	626
2.92892885208	684
2.93006491661	750
2.93016576767	826
2.93129086494	909
2.93139100075	1001
2.93226695061	1117
2.93323683739	1237
2.9335899353	1363
2.93456196785	1491
2.93497300148	1622
2.93596982956	1754
2.93642377853	1885
2.93746399879	2012
2.93777799606	2138
2.93860197067	2256
2.93955683708	2359
2.93990182877	2448
2.94065189362	2515
2.94140291214	2557
2.94238376617	2576
2.94270277023	2569
2.94345378876	2540
2.94413685799	2492
2.94485282898	2426
2.94587397575	2348
2.94627690315	2257
2.9472489357	2162
2.94766283035	2061
2.94838190079	1963
2.94941186905	1868
2.94973993301	1780
2.95078682899	1696
2.95119380951	1624
2.95187282562	1565
2.95261096954	1515
2.95338487625	1478
2.95402479172	1451
2.95496892929	1436
2.95606184006	1431
2.95617294312	1436
2.95710587502	1448
2.95740890503	1463
2.9584608078	1480
2.95954298973	1499
2.95965480804	1518
2.96033596992	1538
2.96123385429	1556
2.96165585518	1574
2.96238899231	1588
2.96308088303	1602
2.96377897263	1614
2.96449589729	1626
2.96519184113	1635
2.96613478661	1640
2.96653795242	1643
2.9673538208	1644
2.96798491478	1643
2.96896481514	1641
2.9693877697	1637
2.97010183334	1632
2.9711368084	1627
2.97144889832	1619
2.97249984741	1615
2.97355985641	1612
2.97375893593	1609
2.97431087494	1605
2.97540593147	1602
2.97559189796	1598
2.9764688015	1594
2.97713685036	1592
2.9781267643	1590
2.97848796844	1587
2.97925281525	1585
2.97996878624	1583
2.9806997776	1584
2.98162889481	1586
2.98201799393	1587
2.9828119278	1589
2.98378586769	1589
2.98484182358	1590
2.98506784439	1590
2.98586392403	1592
2.98630976677	1592
2.98700785637	1592
2.98765778542	1590
2.9883928299	1592
2.98914480209	1592
2.98977899551	1593
2.99045681953	1594
2.99145698547	1593
2.99257087708	1592
2.99277591705	1590
2.99332094193	1589
2.99500584602	1585
2.99523282051	1583
2.99535894394	1579
2.99601888657	1576
2.99670886993	1573
2.99747395515	1573
2.99822688103	1573
2.99894976616	1574
2.99982881546	1573
3.00033378601	1572
3.00098896027	1573
3.00167894363	1572
3.00242996216	1573
3.00310778618	1572
3.00401186943	1571
3.00440883636	1573
3.00511479378	1572
3.00581884384	1575
3.00682282448	1576
3.0072619915	1579
3.00796890259	1579
3.00897979736	1579
3.00935387611	1579
3.01002192497	1577
3.01088690758	1575
3.01139998436	1572
3.0123398304	1568
3.01275587082	1564
3.01351690292	1562
3.01427698135	1560
3.01525592804	1559
3.01567697525	1557
3.01641082764	1556
3.01710796356	1554
3.01806592941	1552
3.0184879303	1551
3.01942896843	1550
3.01984786987	1549
3.02084684372	1549
3.02198696136	1549
3.02208781242	1550
3.02294588089	1554
3.02337098122	1556
3.02398896217	1560
3.02486681938	1562
3.02578687668	1561
3.02627682686	1562
3.02688384056	1562
3.02761292458	1560
3.02829194069	1558
3.02933692932	1554
3.02966094017	1551
3.0304749012	1548
3.03141689301	1548
3.03179788589	1546
3.0325448513	1546
3.03331184387	1544
3.03394198418	1541
3.03464889526	1540
3.03559994698	1537
3.03602290154	1534
3.0367538929	1531
3.03740382195	1530
3.03839993477	1530
3.03953099251	1529
3.03963184357	1532
3.04030585289	1533
3.04101586342	1534
3.04160499573	1535
3.04228687286	1534
3.04318284988	1532
3.04361081123	1532
3.04440283775	1530
3.04505991936	1527
3.04604196548	1525
3.04715490341	1521
3.04725599289	1518
3.0478618145	1518
3.0488858223	1516
3.049284935	1515
3.05033493042	1511
3.05078792572	1509
3.05146980286	1507
3.05216884613	1506
3.05292582512	1503
3.0534927845	1501
3.05445194244	1499
3.05568289757	1499
3.05578398705	1499
3.05634284019	1501
3.05725693703	1502
3.05782485008	1501
3.05843091011	1501
3.05917596817	1498
3.06012797356	1497
3.06054282188	1494
3.06155896187	1490
3.06190991402	1487
3.06264185905	1484
3.06362390518	1480
3.06396889687	1477
3.06482291222	1476
3.065792799	1475
3.06630182266	1472
3.06695890427	1470
3.06755685806	1467
3.06835484505	1466
3.06906485558	1463
3.0696849823	1461
3.07048392296	1458
3.07142496109	1454
3.07185482979	1453
3.07282686234	1453
3.07330679893	1452
3.07386279106	1453
3.07467889786	1451
3.07532382011	1449
3.07605886459	1448
3.0766928196	1445
3.07774090767	1443
3.07811188698	1440
3.0791478157	1436
3.08026885986	1432
3.08037781715	1431
3.0809738636	1430
3.0819208622	1430
3.08237695694	1430
3.08311676979	1427
3.08375287056	1425
3.08449292183	1424
3.08524894714	1422
3.0859348774	1419
3.08665990829	1416
3.08735179901	1413
3.08804488182	1408
3.08869576454	1405
3.08969283104	1403
3.09006381035	1403
3.09085297585	1399
3.09167385101	1399
3.09225296974	1394
3.09306883812	1392
3.09366583824	1387
3.0946688652	1386
3.09500694275	1381
3.09611296654	1378
3.09720396996	1376
3.09734487534	1375
3.09778189659	1375
3.09858584404	1375
3.09947490692	1376
3.09983181953	1376
3.10099983215	1377
3.10206890106	1378
3.10226893425	1377
3.10308694839	1378
3.10342478752	1378
3.10412096977	1378
3.1048579216	1378
3.10553693771	1379
3.10644984245	1382
3.10741686821	1385
3.1076259613	1385
3.10855698586	1386
3.10916495323	1384
3.11008381844	1382
3.11045694351	1381
3.11122894287	1376
3.11229991913	1373
3.1125228405	1369
3.1136329174	1365
3.11473679543	1363
3.11492180824	1363
3.11543798447	1362
3.11637687683	1362
3.11682677269	1362
3.11777377129	1361
3.11809897423	1361
3.11888289452	1363
3.11983990669	1365
3.12029480934	1365
3.12099790573	1367
3.12168979645	1368
3.12277197838	1373
3.12314891815	1376
3.12409591675	1381
3.1252348423	1383
3.12536382675	1385
3.12609982491	1385
3.12649679184	1385
3.12736988068	1385
3.12802886963	1385
3.12872290611	1383
3.12978982925	1383
3.13020181656	1382
3.13088989258	1385
3.13156890869	1387
3.13227391243	1390
3.13300681114	1393
3.13369083405	1393
3.13438796997	1395
3.13536095619	1398
3.13573980331	1400
3.13642692566	1403
3.1374437809	1405
3.13778281212	1408
3.13861489296	1411
3.13959097862	1417
3.13982796669	1423
3.14067482948	1428
3.14134383202	1431
3.14233899117	1435
3.14271497726	1437
3.14346694946	1440
3.1441757679	1443
3.14492487907	1445
3.1455309391	1446
3.14627194405	1448
3.14691877365	1450
3.14761090279	1453
3.1483259201	1457
3.14926576614	1461
3.14970493317	1465
3.15037178993	1469
3.15107893944	1475
3.15178179741	1479
3.15278196335	1484
3.15325093269	1489
3.15391492844	1494
3.15463089943	1499
3.155564785	1506
3.15600085258	1515
3.15668392181	1524
3.15751576424	1530
3.15842580795	1538
3.1587638855	1546
3.15952086449	1550
3.1601998806	1556
3.16090393066	1562
3.16189694405	1567
3.1622159481	1571
3.16307282448	1575
3.16401982307	1580
3.16524291039	1586
3.16534399986	1592
3.16619086266	1600
3.1666238308	1603
3.16731381416	1609
3.16803097725	1613
3.16898488998	1618
3.16936182976	1623
3.17006993294	1628
3.17084598541	1632
3.17145395279	1636
3.17225289345	1642
3.17296385765	1651
3.17364096642	1656
3.17461180687	1663
3.17494297028	1668
3.17562890053	1671
3.17654681206	1673
3.17776894569	1677
3.17786979675	1679
3.17850899696	1680
3.17926692963	1682
3.179874897	1684
3.18058300018	1688
3.18127298355	1692
3.1822488308	1698
3.18272185326	1700
3.18363380432	1704
3.1840429306	1707
3.18475198746	1710
3.18581795692	1713
3.18620991707	1711
3.18726992607	1715
3.18756079674	1715
3.18833780289	1716
3.18925595284	1720
3.18964385986	1723
3.19084596634	1727
3.19206285477	1729
3.1923148632	1729
3.19298291206	1730
3.19337582588	1731
3.19416093826	1730
3.19490981102	1730
3.19586491585	1729
3.19613289833	1729
3.19700694084	1729
3.19762587547	1733
3.19832587242	1735
3.19901394844	1739
3.19998979568	1739
3.2004199028	1742
3.2015337944	1744
3.2017018795	1745
3.20274186134	1749
3.20313191414	1748
3.20381093025	1749
3.20448994637	1752
3.20520186424	1754
3.20611476898	1754
3.20650577545	1757
3.20729088783	1759
3.20818996429	1758
3.20890188217	1759
3.20982098579	1757
3.21008086205	1756
3.21096086502	1754
3.21192288399	1752
3.21235179901	1748
3.21306490898	1745
3.214001894	1744
3.21512794495	1744
3.21534180641	1745
3.21613693237	1746
3.21655797958	1746
3.21725392342	1745
3.21803379059	1746
3.21897292137	1745
3.22002983093	1744
3.22023797035	1745
3.22076797485	1743
3.22172498703	1744
3.22211480141	1745
3.2228679657	1747
3.22379994392	1749
3.22420191765	1752
3.22499680519	1753
3.22564077377	1752
3.22638583183	1753
3.22715592384	1750
3.2277739048	1751
3.2284719944	1750
3.22950077057	1748
3.23063778877	1747
3.23079180717	1749
3.23130297661	1748
3.2320098877	1751
3.23270487785	1751
3.23343586922	1750
3.23406386375	1750
3.23508787155	1749
3.23625183105	1747
3.23640084267	1747
3.23690891266	1744
3.23763394356	1741
3.23831796646	1740
3.23902082443	1739
3.23972082138	1738
3.24053096771	1740
3.24173998833	1738
3.24198794365	1737
3.24256277084	1735
3.24324989319	1733
3.24430990219	1731
3.24447798729	1730
3.24528384209	1728
3.24621796608	1726
3.24657392502	1726
3.24735689163	1725
3.24801397324	1727
3.24902892113	1728
3.24934387207	1731
3.25008392334	1730
3.25075984001	1731
3.25170493126	1733
3.25216579437	1733
3.25320792198	1735
3.25363779068	1735
3.25463485718	1736
3.25506591797	1737
3.25569677353	1739
3.25665092468	1741
3.25707387924	1742
3.2581179142	1742
3.25852584839	1742
3.25923585892	1741
3.25991177559	1740
3.26068687439	1740
3.26135897636	1736
3.26238179207	1733
3.26275396347	1730
3.26343488693	1727
3.26414394379	1724
3.2651219368	1725
3.26557087898	1725
3.26630377769	1723
3.26724290848	1721
3.26768994331	1720
3.26866078377	1721
3.26902794838	1720
3.27006292343	1720
3.27048182487	1720
3.27124476433	1720
3.27182483673	1720
3.27254080772	1722
3.27326083183	1725
3.27395892143	1730
3.27467989922	1730
3.27537178993	1731
3.27602386475	1732
3.27679085732	1732
3.27745890617	1732
3.27850079536	1729
3.27882885933	1725
3.27988195419	1725
3.28023576736	1724
3.28098487854	1725
3.28169584274	1725
3.2824318409	1726
3.28312087059	1726
3.28381490707	1726
3.28451991081	1726
3.28541898727	1725
3.28583478928	1725
3.28659892082	1724
3.2875919342	1722
3.28796482086	1721
3.28867578506	1722
3.28940796852	1725
3.29039978981	1727
3.29073476791	1728
3.29180693626	1727
3.29291677475	1725
3.29302597046	1725
3.29389691353	1724
3.29433178902	1721
3.29504179955	1719
3.29578781128	1718
3.29648280144	1715
3.29708981514	1714
3.29813098907	1714
3.29928994179	1715
3.29939079285	1715
3.29999184608	1715
3.30068898201	1714
3.3013818264	1716
3.30207490921	1715
3.30303788185	1715
3.30345082283	1715
3.30416798592	1716
3.30510091782	1715
3.30550479889	1716
3.30652093887	1718
3.3068959713	1719
3.30766677856	1719
3.30834794044	1717
3.30899691582	1715
3.31006288528	1714
3.31110477448	1711
3.31120491028	1709
3.31192088127	1705
3.31260991096	1702
3.31358599663	1701
3.31398582458	1700
3.31471085548	1701
3.31566882133	1702
3.31610178947	1704
3.31682276726	1703
3.31777882576	1705
3.31821894646	1706
3.31895279884	1708
3.31988692284	1709
3.32029080391	1709
3.32095479965	1711
3.32170987129	1711
3.32241892815	1714
3.3230919838	1718
3.32376384735	1722
3.3244907856	1722
3.32544994354	1722
3.32655978203	1721
3.32665991783	1717
3.32726788521	1714
3.32793092728	1711
3.32867980003	1707
3.32964682579	1704
3.33005094528	1702
3.33081698418	1699
3.3314678669	1698
3.3322558403	1698
3.33301186562	1697
3.33371496201	1694
3.33446884155	1693
3.33517479897	1694
3.33603692055	1693
3.33649682999	1692
3.33725380898	1692
3.33799886703	1693
3.33895993233	1694
3.33938598633	1697
3.34036684036	1700
3.34062194824	1701
3.34152889252	1702
3.34245181084	1703
3.34281086922	1703
3.34360694885	1704
3.34418797493	1698
3.34521889687	1701
3.34570789337	1699
3.34664297104	1697
3.34707593918	1696
3.34782576561	1696
3.34855699539	1698
3.34935379028	1698
3.34996795654	1699
3.35090088844	1699
3.35199999809	1699
3.35213494301	1698
3.35272789001	1696
3.3534309864	1697
3.35415482521	1696
3.35508680344	1694
3.35541582108	1695
3.35620594025	1696
3.35713291168	1698
3.35840296745	1701
3.35853791237	1702
3.35899686813	1702
3.35969376564	1704
3.36035585403	1704
3.36111879349	1705
3.36167883873	1704
3.36249685287	1702
3.36335492134	1701
3.3641808033	1701
3.36463785172	1702
3.36538791656	1703
3.36605882645	1702
3.3667049408	1701
3.36769080162	1698
3.36804890633	1696
3.36884999275	1694
3.36977577209	1692
3.37026286125	1691
3.37101387978	1688
3.37195777893	1685
3.37241697311	1686
3.37328791618	1688
3.37375283241	1692
3.3747689724	1694
3.37499499321	1694
3.37592697144	1694
3.3768248558	1694
3.37717199326	1695
3.37796378136	1694
3.37869977951	1693
3.37945580482	1693
3.38037180901	1692
3.38058185577	1694
3.38175177574	1696
3.38215994835	1698
3.3831448555	1699
3.38353300095	1700
3.38431191444	1700
3.3850338459	1701
3.3857228756	1705
3.38662576675	1705
3.38701486588	1705
3.38800978661	1706
3.38919997215	1707
3.38935089111	1710
3.39016985893	1712
3.39054894447	1715
3.39130592346	1716
3.39230895042	1715
3.39344477654	1714
3.39357876778	1711
3.3941719532	1709
3.39487886429	1707
3.39557600021	1703
3.39653897285	1700
3.39680600166	1697
3.39766287804	1696
3.39838600159	1697
3.39925599098	1697
3.39974284172	1697
3.40039086342	1697
3.40120792389	1696
3.40187692642	1698
3.40256977081	1698
3.40330791473	1700
3.40424990654	1699
3.40464186668	1700
3.40568494797	1702
3.4060177803	1704
3.40674090385	1708
3.40749382973	1711
3.40814995766	1711
3.40886282921	1711
3.40953588486	1713
3.41046690941	1712
3.41088891029	1710
3.41155481339	1710
3.4123749733	1709
3.41329598427	1707
3.41368579865	1708
3.41444182396	1711
3.41543197632	1714
3.41576886177	1716
3.41676187515	1719
3.41707491875	1719
3.41800189018	1720
3.41870284081	1722
3.41939997673	1723
3.42004489899	1726
3.42105579376	1725
3.42219495773	1725
3.42231583595	1728
3.42291688919	1732
3.42354297638	1732
3.42452192307	1734
3.42488193512	1735
3.42558693886	1735
3.42639994621	1733
3.42735981941	1732
3.42776679993	1731
3.42873692513	1729
3.42898988724	1727
3.43010187149	1725
3.43049287796	1722
3.43125581741	1724
3.43221998215	1723
3.43262982368	1722
3.43366193771	1720
3.43406581879	1718
3.43479299545	1716
3.43580889702	1715
3.43620085716	1712
3.43716096878	1710
3.43754982948	1708
3.43852877617	1708
3.43892884254	1709
3.43976283073	1713
3.44071388245	1715
3.44097590446	1718
3.44178581238	1719
3.4426779747	1720
3.44306898117	1721
3.44423389435	1723
3.44452691078	1723
3.44552898407	1720
3.44600296021	1718
3.44669389725	1716
3.44745588303	1714
3.4481818676	1714
3.44911789894	1712
3.44952893257	1710
3.45048999786	1707
3.45164585114	1703
3.45176482201	1698
3.45255589485	1693
3.45303297043	1688
3.45403385162	1683
3.45442581177	1676
3.4554438591	1669
3.45582890511	1666
3.45651578903	1665
3.45720887184	1664
3.45790982246	1662
3.45871281624	1660
3.45943880081	1659
3.4604268074	1659
3.46072387695	1657
3.46144080162	1656
3.46216797829	1655
3.46287894249	1652
3.46352791786	1652
3.46423387527	1651
3.4650118351	1654
3.46597599983	1655
3.46709299088	1655
3.46722888947	1657
3.46805977821	1658
3.46847081184	1660
3.46917676926	1661
3.46991586685	1661
3.4708647728	1663
3.4713408947	1663
3.47200679779	1664
3.47298598289	1669
3.47337079048	1670
3.47437977791	1673
3.4747607708	1674
3.47581481934	1676
3.47610187531	1676
3.47715377808	1676
3.47752976418	1675
3.47854495049	1675
3.47900891304	1675
3.47975087166	1673
3.48073196411	1673
3.48098778725	1674
3.4818649292	1675
3.48287892342	1677
3.48394584656	1679
3.4840669632	1679
3.4846599102	1679
3.48542690277	1680
3.48609495163	1679
3.48700380325	1678
3.48740696907	1677
3.48811578751	1676
3.48889994621	1674
3.48960089684	1674
3.4905629158	1677
3.49165582657	1676
3.49177980423	1674
3.49237179756	1671
3.4930369854	1668
3.49380397797	1665
3.49449682236	1661
3.495210886	1657
3.49609899521	1654
3.49658489227	1651
3.49728488922	1650
3.49827289581	1650
3.49867391586	1651
3.49940776825	1650
3.50041079521	1648
3.50073480606	1647
3.50152492523	1647
3.50222086906	1646
3.50291180611	1647
3.50360989571	1647
3.50457882881	1648
3.50500488281	1647
3.50573086739	1650
3.50642991066	1652
3.50712680817	1656
3.50802779198	1657
3.50837278366	1657
3.50919079781	1656
3.51019096375	1655
3.51057076454	1653
3.51126480103	1652
3.51188492775	1648
3.5128929615	1644
3.51332688332	1641
3.51413178444	1639
3.51517295837	1640
3.51535391808	1639
3.51644492149	1638
3.51679587364	1636
3.5175538063	1636
3.51838588715	1636
3.5192527771	1636
3.520403862	1635
3.52052378654	1636
3.52110695839	1636
3.52184987068	1638
3.52282881737	1641
3.5232257843	1645
3.52390980721	1650
3.52466392517	1653
3.52557587624	1654
3.5260219574	1654
3.52703785896	1654
3.52737593651	1654
3.52837777138	1653
3.52881979942	1651
3.52958488464	1649
3.53053689003	1647
3.53088283539	1646
3.53166890144	1647
3.53238987923	1647
3.53311777115	1647
3.5338177681	1648
3.53451991081	1651
3.53546380997	1652
3.53580594063	1655
3.53683781624	1658
3.53720784187	1659
3.53801488876	1657
3.53870177269	1653
3.53965997696	1647
3.54007697105	1638
3.54074287415	1622
3.54142093658	1600
3.54222488403	1574
3.54293489456	1547
3.54387187958	1515
3.54434800148	1483
3.5452849865	1449
3.54565286636	1414
3.54642796516	1378
3.54741477966	1342
3.54848480225	1308
3.54860377312	1273
3.54912185669	1235
3.55019593239	1194
3.55057477951	1153
3.551404953	1112
3.55230283737	1071
3.55264091492	1030
3.55369091034	988
3.55484080315	956
3.55495882034	927
3.55601978302	902
3.55613899231	879
3.55735087395	862
3.55747294426	845
3.5585258007	831
3.55864477158	819
3.55874490738	809
3.55986595154	806
3.55996894836	805
3.56108498573	808
3.56125187874	812
3.56240582466	815
3.56255793571	815
3.56354999542	815
3.56370091438	813
3.56478095055	809
3.56496596336	802
3.56599378586	789
3.56614685059	772
3.56719183922	751
3.5673418045	727
3.56842780113	700
3.56857776642	673
3.56961894035	646
3.56975388527	621
3.57085585594	600
3.5709939003	584
3.57208180428	574
3.57221889496	573
3.57297277451	580
3.57389092445	595
3.57403182983	619
3.57512784004	654
3.57526493073	701
3.57634782791	758
3.57648086548	820
3.57758378983	892
3.57772278786	974
3.57877278328	1063
3.57907795906	1173
3.57979893684	1292
3.58079981804	1416
3.58117794991	1546
3.58197593689	1678
3.58260893822	1809
3.58328986168	1940
3.58439278603	2073
3.58469676971	2200
3.585739851	2318
3.58606696129	2423
3.58707499504	2510
3.58820581436	2576
3.58834886551	2616
3.5892469883	2636
3.58966898918	2633
3.59037995338	2606
3.59109997749	2558
3.59202098846	2494
3.59244179726	2416
3.59344291687	2326
3.59458184242	2232
3.5947329998	2132
3.59525895119	2032
3.59603095055	1933
3.59671187401	1843
3.59768080711	1760
3.59808087349	1690
3.59908485413	1628
3.59948277473	1578
3.60023498535	1541
3.60116481781	1514
3.60160398483	1498
3.60240197182	1492
3.6030318737	1494
3.60399794579	1501
3.60439276695	1514
3.60515594482	1532
3.60609793663	1554
3.60651493073	1577
3.60722494125	1600
3.60790896416	1621
3.60885286331	1635
3.60931777954	1651
3.61024999619	1662
3.61064887047	1670
3.61145687103	1676
3.61217093468	1678
3.61284589767	1677
3.61354780197	1676
3.6142809391	1675
3.61523389816	1673
3.61561393738	1668
3.61641693115	1662
3.61704683304	1655
3.61803483963	1649
3.61837983131	1642
3.61936378479	1637
3.61983895302	1632
3.62083387375	1626
3.62194681168	1622
3.6220998764	1619
3.62267994881	1619
3.62340497971	1620
3.62409186363	1620
3.62479782104	1621
3.62550187111	1620
3.62619400024	1621
3.62715482712	1622
3.62753796577	1623
3.62828779221	1622
3.62903785706	1622
3.62989997864	1622
3.6303088665	1624
3.63109493256	1628
3.63178992271	1630
3.63250994682	1634
3.63346576691	1634
3.63457798958	1634
3.63473391533	1635
3.63529682159	1635
3.63600897789	1634
3.63697981834	1634
3.63738894463	1631
3.63837790489	1628
3.63870692253	1627
3.63976192474	1626
3.64014792442	1626
3.64083981514	1624
3.64161777496	1621
3.64238286018	1618
3.64327788353	1614
3.64368486404	1610
3.6446928978	1608
3.64501285553	1603
3.64609479904	1598
3.64734983444	1597
3.64750790596	1597
3.64787483215	1597
3.64859390259	1598
3.64930081367	1600
3.65000295639	1601
3.65100598335	1600
3.6521229744	1601
3.65227794647	1601
3.65286493301	1603
3.6538169384	1602
3.65415287018	1602
3.65522885323	1600
3.65560293198	1603
3.65640687943	1606
3.65736484528	1607
3.6576359272	1606
3.65850281715	1605
3.65920090675	1603
3.66016197205	1601
3.66044592857	1598
3.66117691994	1594
3.66227388382	1590
3.66259980202	1585
3.66365695	1582
3.66477894783	1582
3.66488981247	1581
3.66551685333	1581
3.66645097733	1580
3.66757678986	1580
3.66768479347	1580
3.6683318615	1580
3.6690299511	1581
3.66974186897	1583
3.67069196701	1582
3.67104291916	1583
3.67184877396	1582
3.67274188995	1585
3.67386484146	1587
3.67402982712	1591
3.67484378815	1592
3.67532682419	1591
3.67623996735	1590
3.67735695839	1589
3.67747378349	1587
3.67838478088	1583
3.67862987518	1579
3.6794128418	1574
3.68023777008	1571
3.68100595474	1570
3.68161988258	1568
3.68225097656	1567
3.68297982216	1564
3.68368983269	1562
3.68437790871	1558
3.68505477905	1556
3.68606495857	1554
3.68722391129	1553
3.68733692169	1550
3.68796277046	1550
3.68895792961	1550
3.68937587738	1549
3.69035077095	1552
3.69073486328	1554
3.69166493416	1555
3.69197487831	1554
3.69309687614	1554
3.69355177879	1553
3.69425296783	1551
3.69492483139	1550
3.69586992264	1548
3.6963019371	1546
3.69702196121	1545
3.69773197174	1546
3.69843578339	1546
3.69938278198	1546
3.70049786568	1545
3.70059800148	1542
3.70114779472	1541
3.70218586922	1541
3.70260095596	1537
3.70358777046	1534
3.70400094986	1531
3.70472693443	1529
3.70568394661	1528
3.70609593391	1528
3.70710277557	1529
3.70746994019	1528
3.70824790001	1527
3.70914793015	1525
3.70954585075	1522
3.710313797	1520
3.71106290817	1518
3.71200680733	1515
3.712433815	1510
3.71309280396	1507
3.71378898621	1504
3.71446895599	1504
3.71532893181	1504
3.71597480774	1504
3.71668577194	1502
3.71738696098	1502
3.71808385849	1501
3.71877980232	1501
3.71948289871	1501
3.72017598152	1500
3.72087478638	1498
3.72158789635	1498
3.72233295441	1498
3.72325396538	1497
3.72366499901	1496
3.72466993332	1495
3.72578692436	1491
3.72588777542	1485
3.72673392296	1480
3.72714281082	1475
3.72788882256	1470
3.7288608551	1463
3.72930192947	1458
3.7302339077	1454
3.73065781593	1452
3.73140788078	1450
3.73213481903	1450
3.73280477524	1448
3.7337539196	1446
3.73417496681	1445
3.73489880562	1443
3.73587083817	1441
3.7362678051	1438
3.73731994629	1437
3.73765778542	1433
3.73861980438	1432
3.7390089035	1432
3.73977279663	1433
3.74072980881	1432
3.74115180969	1431
3.74185585976	1429
3.74289798737	1427
3.74396586418	1424
3.74406599998	1422
3.74474787712	1419
3.74548077583	1416
3.74616098404	1412
3.74713683128	1409
3.74753689766	1409
3.74832987785	1407
3.7491748333	1407
3.74960899353	1406
3.75044798851	1405
3.75111579895	1404
3.75184297562	1403
3.7525408268	1402
3.75351190567	1401
3.75390577316	1401
3.75466799736	1399
3.75541186333	1399
3.75630378723	1401
3.75735187531	1404
3.75748896599	1407
3.75811886787	1407
3.75879383087	1408
3.7595448494	1407
3.76026082039	1409
3.76120495796	1406
3.7616147995	1404
3.76239395142	1402
3.76306891441	1400
3.76376676559	1400
3.76465678215	1400
3.76502299309	1402
3.76587200165	1403
3.7665708065	1402
3.76726698875	1403
3.76822686195	1401
3.76854681969	1404
3.76955699921	1405
3.76996994019	1406
3.7706887722	1404
3.77137088776	1405
3.77235388756	1407
3.77281188965	1410
3.77388095856	1412
3.77419281006	1415
3.77501392365	1416
3.77567696571	1417
3.77638196945	1419
3.77710080147	1419
3.77802181244	1419
3.77841687202	1418
3.77928876877	1419
3.77992796898	1419
3.78092288971	1420
3.78193998337	1424
3.78206992149	1428
3.78273582458	1429
3.78343081474	1432
3.78411388397	1434
3.78482985497	1437
3.78554177284	1441
3.78649377823	1444
3.78686594963	1447
3.78784680367	1449
3.7883169651	1453
3.78927087784	1457
3.78967189789	1464
3.79062795639	1470
3.79105877876	1475
3.79178977013	1478
3.79259181023	1482
3.79316782951	1484
3.79387593269	1487
3.7945997715	1490
3.79556083679	1492
3.79591584206	1495
3.79670786858	1500
3.79739499092	1505
3.79810380936	1510
3.79879498482	1518
3.79978585243	1524
3.80088877678	1529
3.8010327816	1537
3.80161690712	1543
3.80234479904	1550
3.80326485634	1556
3.8036839962	1561
3.80442881584	1567
3.80515193939	1573
3.80586099625	1580
3.80654096603	1591
3.80749988556	1598
3.80792999268	1605
3.80863690376	1611
3.80937099457	1616
3.8103518486	1622
3.81070184708	1628
3.8119828701	1632
3.81213092804	1638
3.81280088425	1645
3.8138589859	1656
3.81422495842	1669
3.81491589546	1683
3.81559491158	1698
3.81636595726	1712
3.81739282608	1725
3.81852984428	1738
3.81865692139	1751
3.81919598579	1760
3.82016682625	1770
3.8205769062	1776
3.82158398628	1783
3.82198476791	1785
3.82264089584	1789
3.82375192642	1791
3.82389998436	1791
3.82518982887	1788
3.82536888123	1783
3.82625293732	1778
3.82694387436	1773
3.82795286179	1764
3.82837295532	1759
3.82909989357	1750
3.82977986336	1744
3.83048391342	1740
3.83141994476	1739
3.83254694939	1739
3.83266687393	1740
3.83321285248	1740
3.83422684669	1741
3.83457589149	1743
3.83561682701	1747
3.8360388279	1751
3.83678197861	1754
3.83779788017	1757
3.83797192574	1761
3.83890891075	1765
3.83960700035	1771
3.84056091309	1776
3.84089899063	1781
3.84169983864	1785
3.84243392944	1786
3.84305596352	1787
3.84407281876	1788
3.84436678886	1789
3.84514498711	1787
3.8459508419	1786
3.84665799141	1785
3.84758996964	1786
3.84796786308	1788
3.84871196747	1790
3.84943580627	1790
3.85011696815	1790
3.85082888603	1790
3.85151386261	1789
3.85224294662	1789
3.85317277908	1788
3.85429596901	1788
3.854418993	1788
3.85528993607	1788
3.85568785667	1788
3.85670995712	1793
3.85781788826	1794
3.85798192024	1795
3.85880994797	1795
3.85918879509	1795
3.8599588871	1795
3.86065387726	1794
3.86124777794	1792
3.86205983162	1789
3.86275887489	1787
3.8634557724	1785
3.86416578293	1784
3.86484479904	1783
3.86552381516	1784
3.86627078056	1783
3.8672349453	1782
3.86763191223	1782
3.86843085289	1780
3.86933398247	1779
3.86973190308	1779
3.87046599388	1779
3.87115478516	1778
3.87186288834	1778
3.87256193161	1780
3.87354493141	1782
3.87464880943	1784
3.8747677803	1787
3.875415802	1786
3.87632894516	1786
3.87673783302	1784
3.87745976448	1785
3.87815594673	1783
3.87895488739	1781
3.87991094589	1780
3.88099193573	1780
3.88111186028	1781
3.88191390038	1783
3.88300395012	1784
3.88312888145	1784
3.88408279419	1785
3.88448596001	1785
3.88517689705	1785
3.88594293594	1786
3.8866379261	1786
3.88731884956	1786
3.88804984093	1784
3.88873076439	1784
3.88944292068	1786
3.89013576508	1788
3.89072394371	1788
3.89156579971	1789
3.89251279831	1787
3.89289784431	1786
3.89363789558	1784
3.8946158886	1781
3.89497280121	1778
3.89574289322	1774
3.89670181274	1771
3.89701676369	1768
3.89800691605	1769
3.89851784706	1767
3.89924097061	1768
3.89985394478	1768
3.90061497688	1767
3.90138792992	1766
3.90204381943	1766
3.90277385712	1766
3.90373587608	1765
3.90410780907	1765
3.90512895584	1765
3.90623688698	1766
3.90635895729	1768
3.90726399422	1771
3.90754389763	1772
3.90844297409	1770
3.90925788879	1769
3.90975379944	1767
3.91072177887	1765
3.91108298302	1765
3.91190886497	1763
3.91261696815	1760
3.91348695755	1759
3.91387176514	1759
3.91495990753	1759
3.91537499428	1762
3.91613078117	1763
3.91685986519	1761
3.91775894165	1759
3.91815185547	1759
3.91916179657	1760
3.91947078705	1758
3.92057180405	1758
3.92097783089	1758
3.92172980309	1758
3.92243099213	1758
3.92343783379	1762
3.92448282242	1764
3.92460393906	1764
3.92543888092	1765
3.92584395409	1762
3.9265859127	1762
3.92751479149	1760
3.92792391777	1757
3.92867994308	1754
3.92966890335	1752
3.9300968647	1752
3.93111586571	1754
3.93149781227	1759
3.93224191666	1768
3.93297290802	1775
3.93391799927	1785
3.93502879143	1796
3.93514990807	1808
3.93571376801	1819
3.93671393394	1830
3.93782496452	1840
3.93794798851	1850
3.93879985809	1860
3.93922781944	1871
3.94023084641	1880
3.94058895111	1887
3.94163393974	1891
3.94198679924	1894
3.94270777702	1892
3.94350981712	1888
3.94414687157	1882
3.94479799271	1873
3.94559192657	1860
3.94629693031	1845
3.94724392891	1832
3.94763183594	1819
3.94842100143	1806
3.94910097122	1791
3.94979977608	1778
3.95049977303	1764
3.95118999481	1752
3.9518828392	1743
3.95278382301	1735
3.95314693451	1730
3.95424890518	1724
3.95465397835	1721
3.95541977882	1721
3.95611000061	1724
3.95709681511	1727
3.9574007988	1731
3.95845079422	1732
3.95954680443	1735
3.95973396301	1738
3.96017694473	1741
3.96084284782	1744
3.96196293831	1742
3.9623708725	1744
3.96340298653	1744
3.96372699738	1744
3.96449685097	1747
3.96520495415	1748
3.96593379974	1749
3.96663379669	1748
3.96743297577	1748
3.96829891205	1746
3.96865081787	1744
3.96973776817	1744
3.97013378143	1740
3.97114682198	1738
3.97151899338	1737
3.97253584862	1735
3.97286486626	1737
3.97394776344	1737
3.97428488731	1739
3.97522997856	1738
3.9760518074	1738
3.97637176514	1738
3.97707295418	1735
3.97785282135	1735
3.97859382629	1733
3.97923398018	1729
3.98016476631	1728
3.98135089874	1726
3.98147177696	1728
3.98207497597	1727
3.98299098015	1728
3.98340177536	1728
3.98412680626	1726
3.98483777046	1725
3.98554992676	1725
3.98626279831	1724
3.98694777489	1722
3.98790287971	1721
3.98831796646	1719
3.98925590515	1720
3.98972892761	1722
3.99046778679	1724
3.99116396904	1724
3.99185585976	1722
3.99289178848	1722
3.99309277534	1721
3.99397492409	1721
3.99465489388	1721
3.99535989761	1720
3.99605584145	1718
3.99680495262	1717
3.99780797958	1718
3.99891376495	1719
3.99903178215	1719
3.99961876869	1721
4.00036883354	1718
4.00105786324	1718
4.00198698044	1716
4.00224089622	1716
4.00314688683	1715
4.00382184982	1715
4.00453186035	1713
4.00551080704	1714
4.00593686104	1718
4.00657582283	1724
4.00753498077	1730
4.00800395012	1739
4.00874495506	1749
4.00971484184	1759
4.0100479126	1770
4.01085782051	1781
4.01180577278	1791
4.01222777367	1797
4.01291489601	1802
4.01369190216	1803
4.01443886757	1803
4.01506876945	1805
4.01603984833	1802
4.0164308548	1796
4.01708984375	1787
4.01786994934	1779
4.01858592033	1769
4.01922178268	1759
4.02017188072	1749
4.02139282227	1741
4.02151298523	1732
4.02212691307	1725
4.02275586128	1720
4.0234849453	1713
